-1.68252E+02	 2.50000E+02	 2.50000E+02
-1.62951E+02	 2.51000E+02	 2.52000E+02
-1.57654E+02	 2.60000E+02	 2.58000E+02
-1.52359E+02	 2.57000E+02	 2.57000E+02
-1.47067E+02	 2.53000E+02	 2.54000E+02
-1.41778E+02	 2.58000E+02	 2.54000E+02
-1.36493E+02	 2.53000E+02	 2.54000E+02
-1.31210E+02	 2.56000E+02	 2.58000E+02
-1.25930E+02	 2.58000E+02	 2.58000E+02
-1.20654E+02	 2.60000E+02	 2.61000E+02
-1.15380E+02	 2.61000E+02	 2.60000E+02
-1.10109E+02	 2.52000E+02	 2.53000E+02
-1.04841E+02	 2.59000E+02	 2.57000E+02
-9.95765E+01	 2.56000E+02	 2.58000E+02
-9.43147E+01	 2.62000E+02	 2.60000E+02
-8.90558E+01	 2.56000E+02	 2.60000E+02
-8.37999E+01	 2.60000E+02	 2.58000E+02
-7.85470E+01	 2.59000E+02	 2.59000E+02
-7.32971E+01	 2.60000E+02	 2.58000E+02
-6.80501E+01	 2.61000E+02	 2.62000E+02
-6.28061E+01	 2.61000E+02	 2.65000E+02
-5.75650E+01	 2.63000E+02	 2.65000E+02
-5.23269E+01	 2.64000E+02	 2.67000E+02
-4.70918E+01	 2.66000E+02	 2.67000E+02
-4.18596E+01	 2.68000E+02	 2.69000E+02
-3.66303E+01	 2.80000E+02	 2.82000E+02
-3.14040E+01	 2.84000E+02	 2.81000E+02
-2.61807E+01	 3.00000E+02	 3.00000E+02
-2.09602E+01	 3.28000E+02	 3.28000E+02
-1.57428E+01	 4.21000E+02	 4.30000E+02
-1.05282E+01	 1.24100E+03	 1.24800E+03
-5.31664E+00	 1.13170E+04	 1.11000E+04
-1.07979E-01	 3.26110E+04	 3.24160E+04
 5.09775E+00	 1.81860E+04	 1.87060E+04
 1.03006E+01	 1.69600E+03	 1.74600E+03
 1.55004E+01	 4.15000E+02	 4.06000E+02
 2.06974E+01	 3.27000E+02	 3.32000E+02
 2.58914E+01	 2.95000E+02	 2.96000E+02
 3.10825E+01	 2.79000E+02	 2.83000E+02
 3.62707E+01	 2.77000E+02	 2.78000E+02
 4.14560E+01	 2.72000E+02	 2.71000E+02
 4.66384E+01	 2.70000E+02	 2.71000E+02
 5.18178E+01	 2.71000E+02	 2.66000E+02
 5.69944E+01	 2.64000E+02	 2.67000E+02
 6.21680E+01	 2.66000E+02	 2.66000E+02
 6.73388E+01	 2.60000E+02	 2.62000E+02
 7.25066E+01	 2.61000E+02	 2.61000E+02
 7.76716E+01	 2.57000E+02	 2.60000E+02
 8.28336E+01	 2.56000E+02	 2.57000E+02
 8.79928E+01	 2.57000E+02	 2.59000E+02
 9.31490E+01	 2.63000E+02	 2.61000E+02
 9.83024E+01	 2.61000E+02	 2.59000E+02
 1.03453E+02	 2.58000E+02	 2.56000E+02
 1.08600E+02	 2.66000E+02	 2.66000E+02
 1.13745E+02	 2.63000E+02	 2.62000E+02
 1.18887E+02	 2.70000E+02	 2.74000E+02
 1.24026E+02	 2.79000E+02	 2.82000E+02
 1.29162E+02	 3.18000E+02	 3.20000E+02
 1.34295E+02	 3.84000E+02	 3.87000E+02
 1.39426E+02	 5.01000E+02	 4.99000E+02
 1.44553E+02	 6.17000E+02	 6.14000E+02
 1.49678E+02	 7.00000E+02	 7.15000E+02
 1.54799E+02	 7.40000E+02	 7.34000E+02
 1.59918E+02	 7.39000E+02	 7.40000E+02
 1.65034E+02	 7.34000E+02	 7.43000E+02
 1.70148E+02	 7.80000E+02	 7.86000E+02
 1.75258E+02	 7.69000E+02	 7.76000E+02
 1.80365E+02	 7.64000E+02	 7.64000E+02
 1.85470E+02	 7.95000E+02	 7.95000E+02
 1.90572E+02	 8.33000E+02	 8.40000E+02
 1.95671E+02	 8.40000E+02	 8.46000E+02
 2.00767E+02	 8.54000E+02	 8.46000E+02
 2.05860E+02	 8.74000E+02	 8.69000E+02
 2.10950E+02	 8.89000E+02	 8.91000E+02
 2.16038E+02	 9.20000E+02	 9.15000E+02
 2.21122E+02	 9.16000E+02	 9.26000E+02
 2.26204E+02	 9.55000E+02	 9.51000E+02
 2.31283E+02	 9.48000E+02	 9.63000E+02
 2.36360E+02	 9.19000E+02	 9.28000E+02
 2.41433E+02	 9.39000E+02	 9.35000E+02
 2.46504E+02	 8.98000E+02	 8.95000E+02
 2.51571E+02	 8.46000E+02	 8.49000E+02
 2.56636E+02	 8.36000E+02	 8.15000E+02
 2.61698E+02	 7.96000E+02	 8.05000E+02
 2.66758E+02	 7.88000E+02	 7.86000E+02
 2.71814E+02	 7.86000E+02	 7.77000E+02
 2.76868E+02	 7.56000E+02	 7.57000E+02
 2.81919E+02	 7.50000E+02	 7.50000E+02
 2.86967E+02	 7.21000E+02	 7.32000E+02
 2.92012E+02	 6.76000E+02	 6.86000E+02
 2.97055E+02	 6.80000E+02	 6.78000E+02
 3.02094E+02	 6.86000E+02	 6.93000E+02
 3.07131E+02	 6.66000E+02	 6.66000E+02
 3.12165E+02	 6.50000E+02	 6.57000E+02
 3.17196E+02	 6.62000E+02	 6.68000E+02
 3.22225E+02	 6.78000E+02	 6.80000E+02
 3.27251E+02	 6.76000E+02	 6.79000E+02
 3.32274E+02	 6.74000E+02	 6.87000E+02
 3.37294E+02	 6.75000E+02	 6.79000E+02
 3.42311E+02	 6.50000E+02	 6.61000E+02
 3.47326E+02	 6.63000E+02	 6.61000E+02
 3.52337E+02	 6.61000E+02	 6.75000E+02
 3.57346E+02	 6.57000E+02	 6.61000E+02
 3.62353E+02	 6.56000E+02	 6.63000E+02
 3.67356E+02	 6.61000E+02	 6.66000E+02
 3.72357E+02	 6.79000E+02	 6.71000E+02
 3.77355E+02	 6.77000E+02	 6.78000E+02
 3.82350E+02	 6.71000E+02	 6.79000E+02
 3.87342E+02	 6.65000E+02	 6.79000E+02
 3.92332E+02	 6.68000E+02	 6.66000E+02
 3.97319E+02	 6.62000E+02	 6.56000E+02
 4.02303E+02	 6.59000E+02	 6.72000E+02
 4.07284E+02	 6.66000E+02	 6.87000E+02
 4.12263E+02	 6.85000E+02	 6.88000E+02
 4.17239E+02	 6.81000E+02	 6.89000E+02
 4.22212E+02	 6.73000E+02	 6.75000E+02
 4.27182E+02	 7.00000E+02	 6.99000E+02
 4.32150E+02	 7.26000E+02	 7.30000E+02
 4.37115E+02	 7.10000E+02	 7.23000E+02
 4.42077E+02	 6.98000E+02	 6.97000E+02
 4.47037E+02	 6.93000E+02	 6.95000E+02
 4.51993E+02	 6.75000E+02	 6.76000E+02
 4.56947E+02	 6.85000E+02	 6.95000E+02
 4.61898E+02	 7.16000E+02	 7.07000E+02
 4.66847E+02	 7.38000E+02	 7.38000E+02
 4.71793E+02	 7.38000E+02	 7.35000E+02
 4.76736E+02	 7.52000E+02	 7.47000E+02
 4.81676E+02	 7.72000E+02	 7.73000E+02
 4.86614E+02	 7.65000E+02	 7.80000E+02
 4.91549E+02	 7.85000E+02	 7.94000E+02
 4.96481E+02	 7.54000E+02	 7.61000E+02
 5.01410E+02	 7.25000E+02	 7.27000E+02
 5.06337E+02	 7.47000E+02	 7.52000E+02
 5.11261E+02	 7.49000E+02	 7.46000E+02
 5.16183E+02	 7.32000E+02	 7.27000E+02
 5.21101E+02	 7.37000E+02	 7.32000E+02
 5.26017E+02	 7.23000E+02	 7.19000E+02
 5.30930E+02	 7.28000E+02	 7.23000E+02
 5.35841E+02	 7.36000E+02	 7.45000E+02
 5.40749E+02	 7.30000E+02	 7.26000E+02
 5.45654E+02	 7.04000E+02	 7.07000E+02
 5.50556E+02	 6.93000E+02	 6.82000E+02
 5.55456E+02	 6.95000E+02	 6.97000E+02
 5.60353E+02	 6.90000E+02	 6.90000E+02
 5.65248E+02	 6.87000E+02	 6.85000E+02
 5.70139E+02	 6.99000E+02	 7.07000E+02
 5.75028E+02	 7.08000E+02	 7.10000E+02
 5.79915E+02	 7.24000E+02	 7.32000E+02
 5.84798E+02	 7.27000E+02	 7.20000E+02
 5.89679E+02	 7.17000E+02	 7.07000E+02
 5.94558E+02	 7.02000E+02	 7.17000E+02
 5.99433E+02	 7.13000E+02	 7.21000E+02
 6.04306E+02	 7.40000E+02	 7.33000E+02
 6.09177E+02	 7.31000E+02	 7.40000E+02
 6.14044E+02	 7.57000E+02	 7.66000E+02
 6.18909E+02	 7.82000E+02	 7.85000E+02
 6.23772E+02	 8.42000E+02	 8.53000E+02
 6.28631E+02	 8.39000E+02	 8.54000E+02
 6.33488E+02	 7.81000E+02	 7.87000E+02
 6.38343E+02	 7.60000E+02	 7.69000E+02
 6.43194E+02	 7.55000E+02	 7.65000E+02
 6.48044E+02	 7.45000E+02	 7.50000E+02
 6.52890E+02	 7.53000E+02	 7.56000E+02
 6.57734E+02	 7.63000E+02	 7.56000E+02
 6.62575E+02	 7.39000E+02	 7.47000E+02
 6.67413E+02	 7.35000E+02	 7.30000E+02
 6.72249E+02	 7.37000E+02	 7.46000E+02
 6.77082E+02	 7.48000E+02	 7.36000E+02
 6.81913E+02	 7.37000E+02	 7.53000E+02
 6.86741E+02	 7.20000E+02	 7.19000E+02
 6.91566E+02	 7.28000E+02	 7.27000E+02
 6.96389E+02	 7.54000E+02	 7.35000E+02
 7.01209E+02	 7.62000E+02	 7.65000E+02
 7.06026E+02	 7.18000E+02	 7.23000E+02
 7.10841E+02	 7.21000E+02	 7.18000E+02
 7.15653E+02	 7.47000E+02	 7.50000E+02
 7.20463E+02	 7.71000E+02	 7.67000E+02
 7.25270E+02	 7.60000E+02	 7.59000E+02
 7.30074E+02	 7.69000E+02	 7.68000E+02
 7.34876E+02	 7.92000E+02	 7.87000E+02
 7.39675E+02	 8.11000E+02	 8.18000E+02
 7.44471E+02	 8.27000E+02	 8.35000E+02
 7.49265E+02	 8.41000E+02	 8.48000E+02
 7.54057E+02	 8.68000E+02	 8.74000E+02
 7.58845E+02	 8.48000E+02	 8.52000E+02
 7.63631E+02	 8.42000E+02	 8.58000E+02
 7.68415E+02	 8.55000E+02	 8.46000E+02
 7.73196E+02	 8.39000E+02	 8.42000E+02
 7.77974E+02	 8.19000E+02	 8.22000E+02
 7.82750E+02	 7.88000E+02	 8.03000E+02
 7.87523E+02	 7.84000E+02	 7.80000E+02
 7.92293E+02	 7.63000E+02	 7.65000E+02
 7.97061E+02	 7.98000E+02	 8.06000E+02
 8.01826E+02	 8.21000E+02	 8.28000E+02
 8.06589E+02	 8.14000E+02	 8.11000E+02
 8.11349E+02	 7.91000E+02	 8.09000E+02
 8.16107E+02	 8.38000E+02	 8.52000E+02
 8.20862E+02	 8.63000E+02	 8.58000E+02
 8.25614E+02	 8.59000E+02	 8.69000E+02
 8.30364E+02	 8.45000E+02	 8.46000E+02
 8.35111E+02	 8.24000E+02	 8.34000E+02
 8.39856E+02	 8.07000E+02	 8.18000E+02
 8.44598E+02	 8.34000E+02	 8.24000E+02
 8.49338E+02	 8.25000E+02	 8.35000E+02
 8.54075E+02	 8.72000E+02	 8.62000E+02
 8.58809E+02	 8.93000E+02	 8.87000E+02
 8.63541E+02	 8.83000E+02	 8.79000E+02
 8.68271E+02	 8.46000E+02	 8.58000E+02
 8.72997E+02	 8.17000E+02	 8.14000E+02
 8.77722E+02	 8.01000E+02	 8.01000E+02
 8.82443E+02	 7.86000E+02	 7.79000E+02
 8.87162E+02	 7.71000E+02	 7.68000E+02
 8.91879E+02	 7.86000E+02	 7.79000E+02
 8.96593E+02	 7.82000E+02	 7.93000E+02
 9.01304E+02	 8.20000E+02	 8.19000E+02
 9.06013E+02	 8.34000E+02	 8.47000E+02
 9.10720E+02	 8.26000E+02	 8.28000E+02
 9.15424E+02	 8.14000E+02	 8.11000E+02
 9.20125E+02	 8.39000E+02	 8.20000E+02
 9.24824E+02	 8.32000E+02	 8.39000E+02
 9.29520E+02	 8.12000E+02	 8.21000E+02
 9.34214E+02	 8.05000E+02	 8.11000E+02
 9.38905E+02	 8.14000E+02	 8.19000E+02
 9.43594E+02	 8.54000E+02	 8.41000E+02
 9.48280E+02	 8.80000E+02	 8.80000E+02
 9.52963E+02	 8.54000E+02	 8.51000E+02
 9.57644E+02	 8.35000E+02	 8.36000E+02
 9.62323E+02	 8.33000E+02	 8.22000E+02
 9.66999E+02	 8.56000E+02	 8.46000E+02
 9.71673E+02	 8.51000E+02	 8.45000E+02
 9.76344E+02	 8.38000E+02	 8.44000E+02
 9.81012E+02	 8.24000E+02	 8.20000E+02
 9.85678E+02	 8.27000E+02	 8.27000E+02
 9.90342E+02	 8.48000E+02	 8.51000E+02
 9.95003E+02	 8.91000E+02	 8.99000E+02
 9.99661E+02	 9.96000E+02	 1.00100E+03
 1.00432E+03	 1.58500E+03	 1.58600E+03
 1.00897E+03	 2.14500E+03	 2.16600E+03
 1.01362E+03	 1.52600E+03	 1.52900E+03
 1.01827E+03	 9.54000E+02	 9.52000E+02
 1.02292E+03	 8.35000E+02	 8.54000E+02
 1.02756E+03	 8.67000E+02	 8.66000E+02
 1.03220E+03	 1.03300E+03	 1.03000E+03
 1.03684E+03	 1.21400E+03	 1.22400E+03
 1.04148E+03	 1.12000E+03	 1.11500E+03
 1.04611E+03	 9.51000E+02	 9.57000E+02
 1.05074E+03	 9.05000E+02	 9.09000E+02
 1.05537E+03	 8.71000E+02	 8.88000E+02
 1.05999E+03	 8.74000E+02	 8.87000E+02
 1.06462E+03	 8.75000E+02	 8.93000E+02
 1.06924E+03	 8.92000E+02	 8.90000E+02
 1.07386E+03	 9.04000E+02	 9.06000E+02
 1.07847E+03	 9.14000E+02	 9.19000E+02
 1.08309E+03	 9.18000E+02	 9.29000E+02
 1.08770E+03	 8.94000E+02	 8.86000E+02
 1.09231E+03	 8.61000E+02	 8.59000E+02
 1.09691E+03	 8.67000E+02	 8.76000E+02
 1.10152E+03	 8.74000E+02	 8.77000E+02
 1.10612E+03	 8.71000E+02	 8.81000E+02
 1.11072E+03	 8.80000E+02	 8.78000E+02
 1.11531E+03	 8.54000E+02	 8.50000E+02
 1.11991E+03	 8.63000E+02	 8.70000E+02
 1.12450E+03	 8.84000E+02	 8.94000E+02
 1.12909E+03	 8.79000E+02	 8.81000E+02
 1.13368E+03	 8.62000E+02	 8.76000E+02
 1.13826E+03	 8.85000E+02	 8.88000E+02
 1.14284E+03	 8.92000E+02	 9.00000E+02
 1.14742E+03	 8.72000E+02	 8.86000E+02
 1.15200E+03	 9.01000E+02	 9.15000E+02
 1.15657E+03	 9.28000E+02	 9.21000E+02
 1.16115E+03	 9.53000E+02	 9.61000E+02
 1.16571E+03	 9.99000E+02	 1.00900E+03
 1.17028E+03	 9.73000E+02	 9.64000E+02
 1.17485E+03	 9.37000E+02	 9.33000E+02
 1.17941E+03	 9.30000E+02	 9.41000E+02
 1.18397E+03	 9.64000E+02	 9.60000E+02
 1.18853E+03	 1.00000E+03	 1.01400E+03
 1.19308E+03	 1.01500E+03	 1.01800E+03
 1.19763E+03	 1.00100E+03	 1.00400E+03
 1.20218E+03	 1.05300E+03	 1.04600E+03
 1.20673E+03	 1.12900E+03	 1.13300E+03
 1.21128E+03	 1.19000E+03	 1.19900E+03
 1.21582E+03	 1.17100E+03	 1.16400E+03
 1.22036E+03	 1.08000E+03	 1.08900E+03
 1.22490E+03	 1.00400E+03	 9.96000E+02
 1.22943E+03	 9.46000E+02	 9.51000E+02
 1.23397E+03	 8.98000E+02	 8.86000E+02
 1.23850E+03	 9.05000E+02	 8.99000E+02
 1.24303E+03	 9.13000E+02	 9.20000E+02
 1.24755E+03	 9.40000E+02	 9.28000E+02
 1.25208E+03	 9.28000E+02	 9.42000E+02
 1.25660E+03	 9.49000E+02	 9.41000E+02
 1.26112E+03	 9.61000E+02	 9.64000E+02
 1.26563E+03	 9.82000E+02	 9.84000E+02
 1.27015E+03	 9.87000E+02	 9.79000E+02
 1.27466E+03	 9.97000E+02	 9.98000E+02
 1.27917E+03	 9.92000E+02	 9.96000E+02
 1.28367E+03	 9.84000E+02	 9.79000E+02
 1.28818E+03	 9.58000E+02	 9.58000E+02
 1.29268E+03	 9.62000E+02	 9.71000E+02
 1.29718E+03	 9.57000E+02	 9.69000E+02
 1.30168E+03	 9.64000E+02	 9.84000E+02
 1.30617E+03	 9.81000E+02	 9.87000E+02
 1.31067E+03	 9.94000E+02	 9.86000E+02
 1.31516E+03	 9.98000E+02	 1.01100E+03
 1.31964E+03	 1.03900E+03	 1.04000E+03
 1.32413E+03	 1.04600E+03	 1.05800E+03
 1.32861E+03	 1.05700E+03	 1.06700E+03
 1.33309E+03	 1.05600E+03	 1.05800E+03
 1.33757E+03	 1.06000E+03	 1.06700E+03
 1.34205E+03	 1.04800E+03	 1.05500E+03
 1.34652E+03	 1.03500E+03	 1.04100E+03
 1.35099E+03	 1.06200E+03	 1.05400E+03
 1.35546E+03	 1.09500E+03	 1.08400E+03
 1.35993E+03	 1.09200E+03	 1.09900E+03
 1.36439E+03	 1.10000E+03	 1.11400E+03
 1.36885E+03	 1.12800E+03	 1.12700E+03
 1.37331E+03	 1.10600E+03	 1.05300E+03
 1.37777E+03	 1.01100E+03	 9.93000E+02
 1.38222E+03	 9.61000E+02	 9.54000E+02
 1.38668E+03	 9.64000E+02	 9.63000E+02
 1.39113E+03	 9.62000E+02	 9.67000E+02
 1.39557E+03	 9.58000E+02	 9.67000E+02
 1.40002E+03	 9.69000E+02	 9.66000E+02
 1.40446E+03	 9.95000E+02	 1.00700E+03
 1.40890E+03	 1.04500E+03	 1.02900E+03
 1.41334E+03	 1.05100E+03	 1.05200E+03
 1.41778E+03	 1.03800E+03	 1.05900E+03
 1.42221E+03	 1.02300E+03	 1.02700E+03
 1.42664E+03	 9.94000E+02	 9.87000E+02
 1.43107E+03	 9.88000E+02	 9.85000E+02
 1.43550E+03	 1.01900E+03	 1.01300E+03
 1.43992E+03	 1.01000E+03	 1.02400E+03
 1.44434E+03	 1.03700E+03	 1.02700E+03
 1.44876E+03	 1.04100E+03	 1.03400E+03
 1.45318E+03	 1.05200E+03	 1.03700E+03
 1.45760E+03	 1.01600E+03	 1.01000E+03
 1.46201E+03	 1.00100E+03	 1.01100E+03
 1.46642E+03	 1.03700E+03	 1.04000E+03
 1.47083E+03	 1.05100E+03	 1.04700E+03
 1.47523E+03	 1.03300E+03	 1.02600E+03
 1.47964E+03	 9.85000E+02	 9.76000E+02
 1.48404E+03	 9.69000E+02	 9.62000E+02
 1.48844E+03	 9.61000E+02	 9.79000E+02
 1.49283E+03	 9.76000E+02	 9.81000E+02
 1.49723E+03	 9.66000E+02	 9.62000E+02
 1.50162E+03	 9.47000E+02	 9.48000E+02
 1.50601E+03	 9.53000E+02	 9.59000E+02
 1.51040E+03	 9.68000E+02	 9.60000E+02
 1.51478E+03	 9.75000E+02	 9.71000E+02
 1.51916E+03	 9.77000E+02	 9.97000E+02
 1.52354E+03	 9.77000E+02	 9.75000E+02
 1.52792E+03	 9.86000E+02	 9.84000E+02
 1.53230E+03	 1.01100E+03	 1.02300E+03
 1.53667E+03	 1.01600E+03	 1.02600E+03
 1.54104E+03	 1.01400E+03	 1.03200E+03
 1.54541E+03	 1.01600E+03	 1.02400E+03
 1.54978E+03	 1.02600E+03	 1.02000E+03
 1.55414E+03	 1.00800E+03	 1.01900E+03
 1.55851E+03	 1.00500E+03	 1.02400E+03
 1.56287E+03	 1.03400E+03	 1.02600E+03
 1.56722E+03	 1.01800E+03	 1.02000E+03
 1.57158E+03	 1.01500E+03	 1.01700E+03
 1.57593E+03	 1.03400E+03	 1.03400E+03
 1.58028E+03	 1.06100E+03	 1.06200E+03
 1.58463E+03	 1.12700E+03	 1.13700E+03
 1.58898E+03	 1.22700E+03	 1.22100E+03
 1.59332E+03	 1.24900E+03	 1.24800E+03
 1.59766E+03	 1.22000E+03	 1.23100E+03
 1.60200E+03	 1.28400E+03	 1.28400E+03
 1.60634E+03	 1.40200E+03	 1.41800E+03
 1.61067E+03	 1.50600E+03	 1.48900E+03
 1.61501E+03	 1.35000E+03	 1.35200E+03
 1.61934E+03	 1.20700E+03	 1.20100E+03
 1.62366E+03	 1.17200E+03	 1.16800E+03
 1.62799E+03	 1.12600E+03	 1.14600E+03
 1.63231E+03	 1.12500E+03	 1.12000E+03
 1.63663E+03	 1.13900E+03	 1.15800E+03
 1.64095E+03	 1.15900E+03	 1.17000E+03
 1.64527E+03	 1.18200E+03	 1.19200E+03
 1.64959E+03	 1.17200E+03	 1.17700E+03
 1.65390E+03	 1.13900E+03	 1.13600E+03
 1.65821E+03	 1.13200E+03	 1.15300E+03
 1.66252E+03	 1.13200E+03	 1.13400E+03
 1.66682E+03	 1.10800E+03	 1.10600E+03
 1.67112E+03	 1.07000E+03	 1.07400E+03
 1.67543E+03	 1.08100E+03	 1.08000E+03
 1.67972E+03	 1.06300E+03	 1.06800E+03
 1.68402E+03	 1.02600E+03	 1.03300E+03
 1.68832E+03	 1.02700E+03	 1.02600E+03
 1.69261E+03	 1.01500E+03	 1.02200E+03
 1.69690E+03	 1.02100E+03	 1.03000E+03
 1.70119E+03	 1.03300E+03	 1.04500E+03
 1.70547E+03	 1.06100E+03	 1.07200E+03
 1.70975E+03	 1.03400E+03	 1.05000E+03
 1.71403E+03	 1.02600E+03	 1.03200E+03
 1.71831E+03	 9.98000E+02	 9.93000E+02
 1.72259E+03	 9.59000E+02	 9.72000E+02
 1.72686E+03	 9.63000E+02	 9.67000E+02
 1.73114E+03	 9.70000E+02	 9.74000E+02
 1.73541E+03	 1.00500E+03	 1.00100E+03
 1.73967E+03	 1.01200E+03	 1.01100E+03
 1.74394E+03	 9.81000E+02	 9.94000E+02
 1.74820E+03	 9.68000E+02	 9.83000E+02
 1.75246E+03	 9.36000E+02	 9.53000E+02
 1.75672E+03	 9.15000E+02	 9.25000E+02
 1.76098E+03	 9.21000E+02	 9.37000E+02
 1.76523E+03	 9.31000E+02	 9.19000E+02
 1.76949E+03	 9.22000E+02	 9.30000E+02
 1.77374E+03	 9.26000E+02	 9.41000E+02
 1.77798E+03	 9.06000E+02	 9.24000E+02
 1.78223E+03	 9.08000E+02	 9.16000E+02
 1.78647E+03	 9.23000E+02	 9.23000E+02
 1.79072E+03	 9.32000E+02	 9.30000E+02
 1.79495E+03	 9.30000E+02	 9.33000E+02
 1.79919E+03	 9.45000E+02	 9.64000E+02
 1.80343E+03	 9.43000E+02	 9.53000E+02
 1.80766E+03	 9.09000E+02	 9.12000E+02
 1.81189E+03	 8.88000E+02	 8.94000E+02
 1.81612E+03	 8.76000E+02	 8.91000E+02
 1.82034E+03	 8.79000E+02	 8.85000E+02
 1.82457E+03	 9.08000E+02	 9.12000E+02
 1.82879E+03	 9.14000E+02	 9.13000E+02
 1.83301E+03	 9.16000E+02	 9.03000E+02
 1.83723E+03	 8.80000E+02	 8.79000E+02
 1.84144E+03	 8.97000E+02	 8.98000E+02
 1.84565E+03	 9.00000E+02	 9.01000E+02
 1.84986E+03	 9.05000E+02	 9.10000E+02
 1.85407E+03	 9.19000E+02	 9.21000E+02
 1.85828E+03	 9.07000E+02	 9.09000E+02
 1.86248E+03	 8.85000E+02	 8.90000E+02
 1.86669E+03	 8.86000E+02	 8.94000E+02
 1.87089E+03	 8.90000E+02	 8.87000E+02
 1.87508E+03	 8.71000E+02	 8.65000E+02
 1.87928E+03	 8.65000E+02	 8.72000E+02
 1.88347E+03	 8.73000E+02	 8.83000E+02
 1.88766E+03	 8.95000E+02	 9.01000E+02
 1.89185E+03	 9.14000E+02	 9.15000E+02
 1.89604E+03	 9.14000E+02	 9.16000E+02
 1.90022E+03	 9.04000E+02	 8.96000E+02
 1.90441E+03	 8.96000E+02	 9.06000E+02
 1.90859E+03	 8.97000E+02	 9.05000E+02
 1.91277E+03	 8.82000E+02	 8.85000E+02
 1.91694E+03	 8.75000E+02	 8.75000E+02
 1.92112E+03	 8.95000E+02	 9.05000E+02
 1.92529E+03	 8.96000E+02	 8.90000E+02
 1.92946E+03	 8.87000E+02	 8.91000E+02
 1.93363E+03	 8.95000E+02	 8.80000E+02
 1.93779E+03	 8.64000E+02	 8.72000E+02
 1.94195E+03	 8.50000E+02	 8.67000E+02
 1.94612E+03	 8.71000E+02	 8.77000E+02
 1.95027E+03	 9.08000E+02	 9.11000E+02
 1.95443E+03	 9.37000E+02	 9.38000E+02
 1.95859E+03	 9.49000E+02	 9.51000E+02
 1.96274E+03	 9.47000E+02	 9.48000E+02
 1.96689E+03	 9.15000E+02	 9.23000E+02
 1.97104E+03	 8.79000E+02	 8.91000E+02
 1.97518E+03	 8.84000E+02	 8.83000E+02
 1.97933E+03	 8.98000E+02	 8.97000E+02
 1.98347E+03	 9.27000E+02	 9.22000E+02
 1.98761E+03	 8.97000E+02	 9.05000E+02
 1.99175E+03	 9.01000E+02	 9.10000E+02
 1.99588E+03	 8.90000E+02	 9.00000E+02
 2.00002E+03	 8.74000E+02	 8.91000E+02
 2.00415E+03	 8.92000E+02	 8.98000E+02
 2.00828E+03	 8.97000E+02	 9.09000E+02
 2.01241E+03	 9.28000E+02	 1.06200E+03
 2.01653E+03	 9.54000E+02	 9.51000E+02
 2.02065E+03	 9.28000E+02	 9.46000E+02
 2.02477E+03	 9.31000E+02	 9.27000E+02
 2.02889E+03	 9.12000E+02	 9.11000E+02
 2.03301E+03	 9.24000E+02	 9.15000E+02
 2.03712E+03	 9.46000E+02	 9.28000E+02
 2.04124E+03	 9.32000E+02	 9.31000E+02
 2.04535E+03	 9.19000E+02	 9.18000E+02
 2.04946E+03	 9.20000E+02	 9.20000E+02
 2.05356E+03	 9.31000E+02	 9.29000E+02
 2.05767E+03	 9.22000E+02	 9.29000E+02
 2.06177E+03	 9.24000E+02	 9.21000E+02
 2.06587E+03	 9.42000E+02	 9.40000E+02
 2.06997E+03	 9.35000E+02	 9.47000E+02
 2.07406E+03	 9.48000E+02	 9.44000E+02
 2.07816E+03	 9.46000E+02	 9.50000E+02
 2.08225E+03	 9.40000E+02	 9.36000E+02
 2.08634E+03	 9.41000E+02	 9.49000E+02
 2.09042E+03	 9.37000E+02	 9.45000E+02
 2.09451E+03	 9.40000E+02	 9.36000E+02
 2.09859E+03	 9.11000E+02	 9.13000E+02
 2.10267E+03	 9.24000E+02	 9.30000E+02
 2.10675E+03	 9.40000E+02	 9.44000E+02
 2.11083E+03	 9.45000E+02	 9.55000E+02
 2.11490E+03	 9.20000E+02	 9.09000E+02
 2.11898E+03	 9.12000E+02	 9.13000E+02
 2.12305E+03	 9.25000E+02	 9.25000E+02
 2.12712E+03	 9.64000E+02	 9.63000E+02
 2.13118E+03	 9.55000E+02	 9.60000E+02
 2.13525E+03	 9.40000E+02	 9.55000E+02
 2.13931E+03	 9.56000E+02	 9.60000E+02
 2.14337E+03	 9.17000E+02	 9.14000E+02
 2.14743E+03	 9.08000E+02	 9.01000E+02
 2.15149E+03	 9.19000E+02	 9.16000E+02
 2.15554E+03	 9.28000E+02	 9.42000E+02
 2.15959E+03	 9.72000E+02	 9.71000E+02
 2.16364E+03	 9.60000E+02	 9.71000E+02
 2.16769E+03	 9.44000E+02	 9.60000E+02
 2.17174E+03	 9.19000E+02	 9.25000E+02
 2.17578E+03	 9.26000E+02	 9.32000E+02
 2.17982E+03	 9.28000E+02	 9.37000E+02
 2.18386E+03	 9.24000E+02	 9.29000E+02
 2.18790E+03	 9.26000E+02	 9.31000E+02
 2.19194E+03	 9.26000E+02	 9.28000E+02
 2.19597E+03	 9.04000E+02	 9.10000E+02
 2.20000E+03	 8.73000E+02	 8.75000E+02
 2.20403E+03	 8.81000E+02	 8.72000E+02
 2.20806E+03	 8.99000E+02	 8.97000E+02
 2.21208E+03	 9.02000E+02	 9.06000E+02
 2.21611E+03	 9.03000E+02	 9.14000E+02
 2.22013E+03	 9.20000E+02	 9.39000E+02
 2.22415E+03	 9.47000E+02	 9.63000E+02
 2.22817E+03	 9.58000E+02	 9.59000E+02
 2.23218E+03	 9.40000E+02	 9.38000E+02
 2.23620E+03	 9.34000E+02	 9.27000E+02
 2.24021E+03	 9.62000E+02	 9.55000E+02
 2.24422E+03	 9.44000E+02	 9.55000E+02
 2.24822E+03	 9.14000E+02	 9.13000E+02
 2.25223E+03	 9.01000E+02	 9.01000E+02
 2.25623E+03	 9.15000E+02	 9.15000E+02
 2.26023E+03	 8.88000E+02	 9.06000E+02
 2.26423E+03	 8.77000E+02	 9.04000E+02
 2.26823E+03	 8.77000E+02	 8.86000E+02
 2.27223E+03	 8.87000E+02	 8.93000E+02
 2.27622E+03	 8.96000E+02	 8.94000E+02
 2.28021E+03	 9.10000E+02	 9.11000E+02
 2.28420E+03	 9.19000E+02	 9.25000E+02
 2.28819E+03	 9.33000E+02	 9.29000E+02
 2.29217E+03	 9.06000E+02	 9.06000E+02
 2.29615E+03	 9.11000E+02	 9.22000E+02
 2.30014E+03	 9.09000E+02	 9.19000E+02
 2.30411E+03	 9.16000E+02	 9.24000E+02
 2.30809E+03	 9.06000E+02	 9.16000E+02
 2.31207E+03	 8.99000E+02	 9.00000E+02
 2.31604E+03	 8.98000E+02	 9.00000E+02
 2.32001E+03	 8.95000E+02	 8.93000E+02
 2.32398E+03	 8.76000E+02	 8.82000E+02
 2.32795E+03	 8.77000E+02	 8.72000E+02
 2.33191E+03	 8.67000E+02	 8.84000E+02
 2.33587E+03	 8.98000E+02	 9.03000E+02
 2.33984E+03	 9.18000E+02	 9.17000E+02
 2.34380E+03	 9.21000E+02	 9.18000E+02
 2.34775E+03	 8.87000E+02	 8.93000E+02
 2.35171E+03	 9.02000E+02	 8.96000E+02
 2.35566E+03	 8.76000E+02	 9.08000E+02
 2.35961E+03	 8.96000E+02	 9.02000E+02
 2.36356E+03	 8.98000E+02	 8.88000E+02
 2.36751E+03	 8.95000E+02	 8.85000E+02
 2.37145E+03	 8.70000E+02	 8.75000E+02
 2.37540E+03	 8.61000E+02	 8.62000E+02
 2.37934E+03	 8.82000E+02	 8.81000E+02
 2.38328E+03	 9.12000E+02	 9.02000E+02
 2.38721E+03	 8.99000E+02	 8.89000E+02
 2.39115E+03	 8.97000E+02	 8.94000E+02
 2.39508E+03	 8.99000E+02	 8.95000E+02
 2.39901E+03	 9.01000E+02	 9.02000E+02
 2.40294E+03	 8.98000E+02	 9.06000E+02
 2.40687E+03	 8.93000E+02	 9.02000E+02
 2.41080E+03	 8.94000E+02	 8.98000E+02
 2.41472E+03	 8.85000E+02	 8.98000E+02
 2.41864E+03	 9.20000E+02	 9.07000E+02
 2.42256E+03	 9.21000E+02	 9.31000E+02
 2.42648E+03	 9.26000E+02	 9.23000E+02
 2.43039E+03	 9.04000E+02	 9.01000E+02
 2.43431E+03	 9.14000E+02	 9.16000E+02
 2.43822E+03	 9.03000E+02	 9.14000E+02
 2.44213E+03	 9.00000E+02	 8.96000E+02
 2.44604E+03	 8.87000E+02	 8.89000E+02
 2.44994E+03	 8.87000E+02	 8.76000E+02
 2.45385E+03	 9.06000E+02	 9.02000E+02
 2.45775E+03	 9.00000E+02	 9.09000E+02
 2.46165E+03	 9.02000E+02	 9.15000E+02
 2.46555E+03	 8.92000E+02	 9.01000E+02
 2.46944E+03	 8.98000E+02	 8.90000E+02
 2.47334E+03	 8.83000E+02	 8.92000E+02
 2.47723E+03	 8.74000E+02	 8.76000E+02
 2.48112E+03	 8.91000E+02	 8.85000E+02
 2.48501E+03	 9.11000E+02	 9.16000E+02
 2.48889E+03	 9.22000E+02	 9.26000E+02
 2.49278E+03	 8.98000E+02	 8.97000E+02
 2.49666E+03	 9.02000E+02	 9.05000E+02
 2.50054E+03	 9.17000E+02	 9.20000E+02
 2.50442E+03	 9.15000E+02	 9.26000E+02
 2.50830E+03	 9.34000E+02	 9.29000E+02
 2.51217E+03	 9.35000E+02	 9.22000E+02
 2.51604E+03	 9.21000E+02	 9.31000E+02
 2.51992E+03	 9.25000E+02	 9.26000E+02
 2.52378E+03	 9.21000E+02	 9.20000E+02
 2.52765E+03	 9.19000E+02	 9.16000E+02
 2.53152E+03	 9.19000E+02	 9.24000E+02
 2.53538E+03	 9.21000E+02	 9.19000E+02
 2.53924E+03	 9.29000E+02	 9.31000E+02
 2.54310E+03	 9.42000E+02	 9.46000E+02
 2.54696E+03	 9.56000E+02	 9.55000E+02
 2.55081E+03	 9.47000E+02	 9.57000E+02
 2.55467E+03	 9.35000E+02	 9.22000E+02
 2.55852E+03	 9.17000E+02	 9.14000E+02
 2.56237E+03	 9.16000E+02	 9.19000E+02
 2.56622E+03	 9.24000E+02	 9.33000E+02
 2.57006E+03	 9.36000E+02	 9.30000E+02
 2.57391E+03	 9.37000E+02	 9.43000E+02
 2.57775E+03	 9.56000E+02	 9.39000E+02
 2.58159E+03	 9.43000E+02	 9.34000E+02
 2.58543E+03	 9.45000E+02	 9.51000E+02
 2.58926E+03	 9.43000E+02	 9.51000E+02
 2.59310E+03	 9.40000E+02	 9.27000E+02
 2.59693E+03	 9.39000E+02	 9.49000E+02
 2.60076E+03	 9.44000E+02	 9.48000E+02
 2.60459E+03	 9.77000E+02	 9.78000E+02
 2.60842E+03	 9.61000E+02	 9.55000E+02
 2.61224E+03	 9.39000E+02	 9.30000E+02
 2.61606E+03	 9.45000E+02	 9.42000E+02
 2.61989E+03	 9.49000E+02	 9.53000E+02
 2.62370E+03	 9.57000E+02	 9.41000E+02
 2.62752E+03	 9.18000E+02	 9.15000E+02
 2.63134E+03	 9.05000E+02	 9.04000E+02
 2.63515E+03	 9.16000E+02	 9.12000E+02
 2.63896E+03	 9.26000E+02	 9.05000E+02
 2.64277E+03	 9.33000E+02	 9.30000E+02
 2.64658E+03	 9.40000E+02	 9.47000E+02
 2.65039E+03	 9.59000E+02	 9.51000E+02
 2.65419E+03	 9.58000E+02	 9.54000E+02
 2.65799E+03	 9.44000E+02	 9.38000E+02
 2.66179E+03	 9.36000E+02	 9.40000E+02
 2.66559E+03	 9.53000E+02	 9.55000E+02
 2.66939E+03	 9.56000E+02	 9.49000E+02
 2.67318E+03	 9.39000E+02	 9.28000E+02
 2.67698E+03	 9.43000E+02	 9.51000E+02
 2.68077E+03	 9.54000E+02	 9.61000E+02
 2.68456E+03	 9.68000E+02	 9.50000E+02
 2.68834E+03	 9.44000E+02	 9.44000E+02
 2.69213E+03	 9.43000E+02	 9.37000E+02
 2.69591E+03	 9.35000E+02	 9.32000E+02
 2.69969E+03	 9.34000E+02	 9.28000E+02
 2.70347E+03	 9.39000E+02	 9.33000E+02
 2.70725E+03	 9.65000E+02	 9.58000E+02
 2.71103E+03	 9.68000E+02	 9.78000E+02
 2.71480E+03	 9.67000E+02	 9.70000E+02
 2.71857E+03	 9.34000E+02	 9.25000E+02
 2.72235E+03	 9.31000E+02	 9.16000E+02
 2.72611E+03	 9.63000E+02	 9.36000E+02
 2.72988E+03	 9.63000E+02	 9.63000E+02
 2.73365E+03	 9.46000E+02	 9.47000E+02
 2.73741E+03	 9.56000E+02	 9.46000E+02
 2.74117E+03	 9.58000E+02	 9.62000E+02
 2.74493E+03	 9.69000E+02	 9.69000E+02
 2.74869E+03	 9.74000E+02	 9.60000E+02
 2.75244E+03	 9.68000E+02	 9.56000E+02
 2.75620E+03	 9.52000E+02	 9.43000E+02
 2.75995E+03	 9.43000E+02	 9.49000E+02
 2.76370E+03	 9.66000E+02	 9.75000E+02
 2.76745E+03	 9.90000E+02	 9.73000E+02
 2.77119E+03	 9.92000E+02	 9.80000E+02
 2.77494E+03	 9.71000E+02	 9.79000E+02
 2.77868E+03	 9.60000E+02	 9.69000E+02
 2.78242E+03	 9.68000E+02	 9.64000E+02
 2.78616E+03	 9.61000E+02	 9.52000E+02
 2.78990E+03	 9.82000E+02	 9.73000E+02
 2.79363E+03	 9.95000E+02	 9.77000E+02
 2.79737E+03	 9.96000E+02	 9.88000E+02
 2.80110E+03	 1.00500E+03	 9.96000E+02
 2.80483E+03	 9.98000E+02	 9.77000E+02
 2.80856E+03	 9.99000E+02	 9.79000E+02
 2.81228E+03	 9.98000E+02	 1.00100E+03
 2.81601E+03	 1.09800E+03	 9.94000E+02
 2.81973E+03	 1.00300E+03	 9.95000E+02
 2.82345E+03	 1.00300E+03	 1.00500E+03
 2.82717E+03	 1.01300E+03	 1.01600E+03
 2.83088E+03	 1.01300E+03	 1.00900E+03
 2.83460E+03	 9.98000E+02	 9.99000E+02
 2.83831E+03	 9.97000E+02	 1.00300E+03
 2.84203E+03	 1.00100E+03	 9.91000E+02
 2.84573E+03	 1.00500E+03	 1.00400E+03
 2.84944E+03	 1.02800E+03	 1.00900E+03
 2.85315E+03	 1.02300E+03	 1.01800E+03
 2.85685E+03	 1.05400E+03	 1.03700E+03
 2.86056E+03	 1.07000E+03	 1.05500E+03
 2.86426E+03	 1.08900E+03	 1.08100E+03
 2.86796E+03	 1.12200E+03	 1.12300E+03
 2.87165E+03	 1.12000E+03	 1.12300E+03
 2.87535E+03	 1.13000E+03	 1.12400E+03
 2.87904E+03	 1.10800E+03	 1.11500E+03
 2.88273E+03	 1.09000E+03	 1.09600E+03
 2.88642E+03	 1.05800E+03	 1.06800E+03
 2.89011E+03	 1.07600E+03	 1.08000E+03
 2.89380E+03	 1.10400E+03	 1.10000E+03
 2.89748E+03	 1.10700E+03	 1.10300E+03
 2.90116E+03	 1.12700E+03	 1.11700E+03
 2.90484E+03	 1.16700E+03	 1.14500E+03
 2.90852E+03	 1.19300E+03	 1.18700E+03
 2.91220E+03	 1.20300E+03	 1.20400E+03
 2.91588E+03	 1.21000E+03	 1.20500E+03
 2.91955E+03	 1.24900E+03	 1.24500E+03
 2.92322E+03	 1.28500E+03	 1.28300E+03
 2.92689E+03	 1.31500E+03	 1.33100E+03
 2.93056E+03	 1.39100E+03	 1.40100E+03
 2.93423E+03	 1.44900E+03	 1.42000E+03
 2.93789E+03	 1.48800E+03	 1.49100E+03
 2.94155E+03	 1.50900E+03	 1.51900E+03
 2.94522E+03	 1.50700E+03	 1.52600E+03
 2.94887E+03	 1.53100E+03	 1.53000E+03
 2.95253E+03	 1.53500E+03	 1.54100E+03
 2.95619E+03	 1.52600E+03	 1.51100E+03
 2.95984E+03	 1.49600E+03	 1.48500E+03
 2.96349E+03	 1.49800E+03	 1.52000E+03
 2.96714E+03	 1.53400E+03	 1.53800E+03
 2.97079E+03	 1.57300E+03	 1.55600E+03
 2.97444E+03	 1.57200E+03	 1.59000E+03
 2.97809E+03	 1.60400E+03	 1.60000E+03
 2.98173E+03	 1.57300E+03	 1.56800E+03
 2.98537E+03	 1.55800E+03	 1.55400E+03
 2.98901E+03	 1.50600E+03	 1.51400E+03
 2.99265E+03	 1.48400E+03	 1.48700E+03
 2.99628E+03	 1.48700E+03	 1.51500E+03
 2.99992E+03	 1.51700E+03	 1.52600E+03
 3.00355E+03	 1.54000E+03	 1.54900E+03
 3.00718E+03	 1.59200E+03	 1.59200E+03
 3.01081E+03	 1.64900E+03	 1.66300E+03
 3.01444E+03	 1.66400E+03	 1.68000E+03
 3.01806E+03	 1.69000E+03	 1.66900E+03
 3.02169E+03	 1.70700E+03	 1.72000E+03
 3.02531E+03	 1.76500E+03	 1.75800E+03
 3.02893E+03	 1.79100E+03	 1.75900E+03
 3.03255E+03	 1.82200E+03	 1.80000E+03
 3.03617E+03	 1.92300E+03	 1.92500E+03
 3.03978E+03	 1.99500E+03	 1.99100E+03
 3.04339E+03	 2.01300E+03	 2.02800E+03
 3.04701E+03	 2.04000E+03	 2.03100E+03
 3.05062E+03	 2.12500E+03	 2.12500E+03
 3.05422E+03	 2.21800E+03	 2.23500E+03
 3.05783E+03	 2.32600E+03	 2.33000E+03
 3.06144E+03	 2.56100E+03	 2.55100E+03
 3.06504E+03	 2.84000E+03	 2.81900E+03
 3.06864E+03	 2.89100E+03	 2.89500E+03
 3.07224E+03	 2.89700E+03	 2.91100E+03
 3.07584E+03	 2.90200E+03	 2.92400E+03
 3.07943E+03	 2.81600E+03	 2.83100E+03
 3.08303E+03	 2.78800E+03	 2.77000E+03
 3.08662E+03	 2.71200E+03	 2.72200E+03
 3.09021E+03	 2.64700E+03	 2.68100E+03
 3.09380E+03	 2.64100E+03	 2.63900E+03
 3.09739E+03	 2.57200E+03	 2.58700E+03
 3.10097E+03	 2.61600E+03	 2.64700E+03
 3.10455E+03	 2.67100E+03	 2.67800E+03
 3.10814E+03	 2.72900E+03	 2.72800E+03
 3.11172E+03	 2.78400E+03	 2.79300E+03
 3.11530E+03	 2.83300E+03	 2.84100E+03
 3.11887E+03	 2.92500E+03	 2.92000E+03
 3.12245E+03	 3.09200E+03	 3.10900E+03
 3.12602E+03	 3.18000E+03	 3.19200E+03
 3.12959E+03	 3.20800E+03	 3.21200E+03
 3.13316E+03	 3.22900E+03	 3.25500E+03
 3.13673E+03	 3.31600E+03	 3.33300E+03
 3.14030E+03	 3.42300E+03	 3.44700E+03
 3.14386E+03	 3.49200E+03	 3.52300E+03
 3.14742E+03	 3.60400E+03	 3.59900E+03
 3.15099E+03	 3.77300E+03	 3.76800E+03
 3.15455E+03	 3.84000E+03	 3.83100E+03
 3.15810E+03	 3.88500E+03	 3.87400E+03
 3.16166E+03	 3.91200E+03	 3.91800E+03
 3.16521E+03	 3.92600E+03	 3.95500E+03
 3.16877E+03	 3.91400E+03	 3.95600E+03
 3.17232E+03	 4.06200E+03	 4.06000E+03
 3.17587E+03	 4.29300E+03	 4.24400E+03
 3.17941E+03	 4.37500E+03	 4.37400E+03
 3.18296E+03	 4.42200E+03	 4.42200E+03
 3.18650E+03	 4.45000E+03	 4.44400E+03
 3.19005E+03	 4.43900E+03	 4.45900E+03
 3.19359E+03	 4.50400E+03	 4.48000E+03
 3.19713E+03	 4.46700E+03	 4.48700E+03
 3.20066E+03	 4.57500E+03	 4.59600E+03
 3.20420E+03	 4.76000E+03	 4.74100E+03
 3.20773E+03	 4.79100E+03	 4.82300E+03
 3.21127E+03	 4.80100E+03	 4.86300E+03
 3.21480E+03	 4.92700E+03	 4.92500E+03
 3.21832E+03	 5.00500E+03	 4.99100E+03
 3.22185E+03	 4.95000E+03	 4.93800E+03
 3.22538E+03	 4.88400E+03	 4.86000E+03
 3.22890E+03	 4.84000E+03	 4.82600E+03
 3.23242E+03	 4.93100E+03	 4.94900E+03
 3.23594E+03	 5.02300E+03	 5.04300E+03
 3.23946E+03	 5.06200E+03	 5.06100E+03
 3.24298E+03	 5.07900E+03	 5.07300E+03
 3.24649E+03	 4.98000E+03	 4.97700E+03
 3.25001E+03	 4.90300E+03	 4.90200E+03
 3.25352E+03	 4.97300E+03	 4.99000E+03
 3.25703E+03	 5.24300E+03	 5.28400E+03
 3.26054E+03	 5.42700E+03	 5.43400E+03
 3.26405E+03	 5.31400E+03	 5.35100E+03
 3.26755E+03	 5.27100E+03	 5.24000E+03
 3.27105E+03	 5.21200E+03	 5.20400E+03
 3.27456E+03	 5.18800E+03	 5.17400E+03
 3.27806E+03	 5.13600E+03	 5.12900E+03
 3.28155E+03	 5.18500E+03	 5.22100E+03
 3.28505E+03	 5.18700E+03	 5.22000E+03
 3.28855E+03	 5.30200E+03	 5.28100E+03
 3.29204E+03	 5.34900E+03	 5.33100E+03
 3.29553E+03	 5.34600E+03	 5.30700E+03
 3.29902E+03	 5.29400E+03	 5.27600E+03
 3.30251E+03	 5.38100E+03	 5.40000E+03
 3.30600E+03	 5.62600E+03	 5.60700E+03
 3.30948E+03	 5.70000E+03	 5.73100E+03
 3.31297E+03	 5.74900E+03	 5.77300E+03
 3.31645E+03	 5.63100E+03	 5.65900E+03
 3.31993E+03	 5.47700E+03	 5.47000E+03
 3.32341E+03	 5.37200E+03	 5.41200E+03
 3.32688E+03	 5.39000E+03	 5.39400E+03
 3.33036E+03	 5.42800E+03	 5.47500E+03
 3.33383E+03	 5.51600E+03	 5.49800E+03
 3.33730E+03	 5.53700E+03	 5.54500E+03
 3.34077E+03	 5.48700E+03	 5.44200E+03
 3.34424E+03	 5.42700E+03	 5.44200E+03
 3.34771E+03	 5.60000E+03	 5.56000E+03
 3.35117E+03	 5.77200E+03	 5.76200E+03
 3.35464E+03	 5.89300E+03	 5.91200E+03
 3.35810E+03	 6.02600E+03	 6.06600E+03
 3.36156E+03	 6.08000E+03	 6.06800E+03
 3.36502E+03	 6.07000E+03	 6.07500E+03
 3.36848E+03	 5.99500E+03	 5.95100E+03
 3.37193E+03	 5.78200E+03	 5.76000E+03
 3.37538E+03	 5.80900E+03	 5.77600E+03
 3.37884E+03	 6.02100E+03	 5.99700E+03
 3.38229E+03	 6.07000E+03	 6.07000E+03
 3.38574E+03	 6.03400E+03	 6.01200E+03
 3.38918E+03	 5.92800E+03	 5.95500E+03
 3.39263E+03	 6.04600E+03	 6.06200E+03
 3.39607E+03	 6.08700E+03	 6.12800E+03
 3.39951E+03	 6.22500E+03	 6.22200E+03
 3.40295E+03	 6.21300E+03	 6.15900E+03
 3.40639E+03	 6.10800E+03	 6.12700E+03
 3.40983E+03	 6.05000E+03	 6.08500E+03
 3.41327E+03	 6.13300E+03	 6.12200E+03
 3.41670E+03	 6.20300E+03	 6.20900E+03
 3.42013E+03	 6.32100E+03	 6.28200E+03
 3.42356E+03	 6.26200E+03	 6.29700E+03
 3.42699E+03	 6.14800E+03	 6.17900E+03
 3.43042E+03	 5.90300E+03	 5.90100E+03
 3.43384E+03	 5.64400E+03	 5.61200E+03
 3.43727E+03	 5.66900E+03	 5.71600E+03
 3.44069E+03	 5.82800E+03	 5.81100E+03
 3.44411E+03	 5.94200E+03	 5.92500E+03
 3.44753E+03	 5.97100E+03	 5.97200E+03
 3.45095E+03	 5.78500E+03	 5.77100E+03
 3.45437E+03	 5.68800E+03	 5.68300E+03
 3.45778E+03	 5.76800E+03	 5.79000E+03
 3.46119E+03	 5.76000E+03	 5.73900E+03
 3.46460E+03	 5.62600E+03	 5.63000E+03
 3.46801E+03	 5.45900E+03	 5.46600E+03
 3.47142E+03	 5.41900E+03	 5.42200E+03
 3.47483E+03	 5.46700E+03	 5.48400E+03
 3.47823E+03	 5.36500E+03	 5.36300E+03
 3.48164E+03	 5.28100E+03	 5.24200E+03
 3.48504E+03	 5.25400E+03	 5.27300E+03
 3.48844E+03	 5.33400E+03	 5.30300E+03
 3.49184E+03	 5.16300E+03	 5.12900E+03
 3.49523E+03	 4.98300E+03	 4.98800E+03
 3.49863E+03	 4.95500E+03	 4.96800E+03
 3.50202E+03	 4.88000E+03	 4.94100E+03
 3.50541E+03	 4.84100E+03	 4.82800E+03
 3.50880E+03	 4.80900E+03	 4.79700E+03
 3.51219E+03	 4.72000E+03	 4.68100E+03
 3.51558E+03	 4.60000E+03	 4.58300E+03
 3.51896E+03	 4.52600E+03	 4.54200E+03
 3.52235E+03	 4.50300E+03	 4.49700E+03
 3.52573E+03	 4.42100E+03	 4.46400E+03
 3.52911E+03	 4.38900E+03	 4.40000E+03
 3.53249E+03	 4.37700E+03	 4.36400E+03
 3.53587E+03	 4.25800E+03	 4.29700E+03
 3.53924E+03	 4.22100E+03	 4.21400E+03
 3.54262E+03	 4.09400E+03	 4.09100E+03
 3.54599E+03	 3.95300E+03	 3.94300E+03
 3.54936E+03	 3.78000E+03	 3.77900E+03
 3.55273E+03	 3.68100E+03	 3.69700E+03
 3.55610E+03	 3.68200E+03	 3.65800E+03
 3.55946E+03	 3.64000E+03	 3.63600E+03
 3.56283E+03	 3.51900E+03	 3.53000E+03
 3.56619E+03	 3.47600E+03	 3.46400E+03
 3.56955E+03	 3.43900E+03	 3.44200E+03
 3.57291E+03	 3.39700E+03	 3.37600E+03
 3.57627E+03	 3.33300E+03	 3.35400E+03
 3.57963E+03	 3.34500E+03	 3.35800E+03
 3.58298E+03	 3.33100E+03	 3.34800E+03
 3.58634E+03	 3.27600E+03	 3.27300E+03
 3.58969E+03	 3.20000E+03	 3.18300E+03
 3.59304E+03	 3.10700E+03	 3.10500E+03
 3.59639E+03	 2.96700E+03	 2.96700E+03
 3.59974E+03	 2.89400E+03	 2.86900E+03
 3.60308E+03	 2.75900E+03	 2.77600E+03
 3.60643E+03	 2.72200E+03	 2.74100E+03
 3.60977E+03	 2.74300E+03	 2.75100E+03
 3.61311E+03	 2.70300E+03	 2.69500E+03
 3.61645E+03	 2.61000E+03	 2.62600E+03
 3.61979E+03	 2.60300E+03	 2.62400E+03
 3.62312E+03	 2.64200E+03	 2.63200E+03
 3.62646E+03	 2.59400E+03	 2.58400E+03
 3.62979E+03	 2.55300E+03	 2.54500E+03
 3.63312E+03	 2.46000E+03	 2.48300E+03
 3.63645E+03	 2.40900E+03	 2.40700E+03
 3.63978E+03	 2.30800E+03	 2.31000E+03
 3.64311E+03	 2.22100E+03	 2.20000E+03
 3.64643E+03	 2.17900E+03	 2.16500E+03
 3.64976E+03	 2.13600E+03	 2.11900E+03
 3.65308E+03	 2.04300E+03	 1.99800E+03
 3.65640E+03	 1.91300E+03	 1.89800E+03
 3.65972E+03	 1.82500E+03	 1.83100E+03
 3.66304E+03	 1.78100E+03	 1.75100E+03
 3.66635E+03	 1.73500E+03	 1.72400E+03
 3.66967E+03	 1.66400E+03	 1.66100E+03
 3.67298E+03	 1.58800E+03	 1.60000E+03
 3.67629E+03	 1.55000E+03	 1.56600E+03
 3.67960E+03	 1.53700E+03	 1.54500E+03
 3.68291E+03	 1.52300E+03	 1.49900E+03
 3.68621E+03	 1.44100E+03	 1.45300E+03
 3.68952E+03	 1.36100E+03	 1.35400E+03
 3.69282E+03	 1.30500E+03	 1.29600E+03
 3.69613E+03	 1.24900E+03	 1.25300E+03
 3.69943E+03	 1.22600E+03	 1.23300E+03
 3.70272E+03	 1.20000E+03	 1.19500E+03
 3.70602E+03	 1.15900E+03	 1.16200E+03
 3.70932E+03	 1.10800E+03	 1.09400E+03
 3.71261E+03	 1.08900E+03	 1.07200E+03
 3.71591E+03	 1.04400E+03	 1.02900E+03
 3.71920E+03	 1.02900E+03	 1.04300E+03
 3.72249E+03	 1.02100E+03	 1.02300E+03
 3.72577E+03	 1.03500E+03	 1.05200E+03
 3.72906E+03	 1.03700E+03	 1.04000E+03
 3.73235E+03	 1.02900E+03	 1.02700E+03
 3.73563E+03	 9.92000E+02	 1.00400E+03
 3.73891E+03	 9.91000E+02	 9.89000E+02
 3.74219E+03	 9.78000E+02	 9.83000E+02
 3.74547E+03	 9.56000E+02	 9.77000E+02
 3.74875E+03	 9.51000E+02	 9.58000E+02
 3.75202E+03	 9.49000E+02	 9.48000E+02
 3.75530E+03	 9.34000E+02	 9.29000E+02
 3.75857E+03	 9.07000E+02	 9.02000E+02
 3.76184E+03	 9.07000E+02	 9.05000E+02
 3.76511E+03	 9.02000E+02	 8.96000E+02
 3.76838E+03	 8.89000E+02	 8.80000E+02
 3.77165E+03	 8.65000E+02	 8.87000E+02
 3.77491E+03	 8.66000E+02	 8.77000E+02
 3.77818E+03	 8.73000E+02	 8.63000E+02
 3.78144E+03	 8.63000E+02	 8.71000E+02
 3.78470E+03	 8.65000E+02	 8.64000E+02
 3.78796E+03	 8.70000E+02	 8.51000E+02
 3.79121E+03	 8.68000E+02	 8.65000E+02
 3.79447E+03	 8.53000E+02	 8.64000E+02
 3.79772E+03	 8.65000E+02	 8.67000E+02
 3.80098E+03	 8.76000E+02	 8.74000E+02
 3.80423E+03	 8.76000E+02	 8.81000E+02
 3.80748E+03	 8.76000E+02	 8.71000E+02
 3.81073E+03	 8.67000E+02	 8.68000E+02
 3.81397E+03	 8.56000E+02	 8.52000E+02
 3.81722E+03	 8.44000E+02	 8.53000E+02
 3.82046E+03	 8.42000E+02	 8.31000E+02
 3.82371E+03	 8.24000E+02	 8.29000E+02
 3.82695E+03	 8.28000E+02	 8.21000E+02
 3.83019E+03	 8.30000E+02	 8.30000E+02
 3.83342E+03	 8.38000E+02	 8.45000E+02
 3.83666E+03	 8.50000E+02	 8.43000E+02
 3.83990E+03	 8.46000E+02	 8.38000E+02
 3.84313E+03	 8.33000E+02	 8.30000E+02
 3.84636E+03	 8.21000E+02	 8.10000E+02
 3.84959E+03	 8.23000E+02	 8.14000E+02
 3.85282E+03	 8.15000E+02	 8.13000E+02
 3.85605E+03	 8.17000E+02	 8.25000E+02
 3.85927E+03	 8.23000E+02	 8.11000E+02
 3.86250E+03	 8.11000E+02	 8.26000E+02
 3.86572E+03	 8.15000E+02	 8.22000E+02
 3.86894E+03	 8.25000E+02	 8.15000E+02
 3.87216E+03	 8.22000E+02	 8.20000E+02
 3.87538E+03	 8.15000E+02	 8.12000E+02
 3.87860E+03	 7.94000E+02	 8.01000E+02
 3.88181E+03	 8.00000E+02	 8.07000E+02
 3.88503E+03	 8.03000E+02	 8.00000E+02
 3.88824E+03	 8.15000E+02	 7.99000E+02
 3.89145E+03	 8.17000E+02	 8.20000E+02
 3.89466E+03	 8.19000E+02	 8.18000E+02
 3.89787E+03	 7.91000E+02	 7.89000E+02
 3.90107E+03	 7.92000E+02	 7.93000E+02
 3.90428E+03	 7.98000E+02	 7.99000E+02
 3.90748E+03	 8.05000E+02	 8.07000E+02
 3.91068E+03	 8.17000E+02	 8.25000E+02
 3.91388E+03	 8.18000E+02	 8.22000E+02
 3.91708E+03	 8.11000E+02	 8.03000E+02
 3.92028E+03	 7.95000E+02	 8.01000E+02
 3.92348E+03	 8.03000E+02	 7.94000E+02
 3.92667E+03	 7.91000E+02	 7.84000E+02
 3.92987E+03	 8.17000E+02	 8.10000E+02
 3.93306E+03	 8.13000E+02	 8.16000E+02
 3.93625E+03	 8.10000E+02	 8.09000E+02
 3.93944E+03	 8.09000E+02	 8.10000E+02
 3.94262E+03	 8.10000E+02	 8.20000E+02
 3.94581E+03	 8.21000E+02	 8.24000E+02
 3.94899E+03	 8.19000E+02	 8.19000E+02
 3.95218E+03	 8.08000E+02	 8.15000E+02
 3.95536E+03	 7.88000E+02	 7.83000E+02
 3.95854E+03	 7.84000E+02	 7.80000E+02
 3.96172E+03	 7.81000E+02	 7.60000E+02
 3.96489E+03	 7.82000E+02	 7.78000E+02
 3.96807E+03	 7.75000E+02	 7.76000E+02
 3.97124E+03	 7.87000E+02	 7.76000E+02
 3.97441E+03	 7.96000E+02	 7.97000E+02
 3.97759E+03	 8.01000E+02	 8.12000E+02
 3.98076E+03	 8.29000E+02	 8.22000E+02
 3.98392E+03	 8.06000E+02	 8.02000E+02
 3.98709E+03	 8.18000E+02	 8.13000E+02
 3.99026E+03	 8.08000E+02	 8.09000E+02
 3.99342E+03	 8.15000E+02	 7.92000E+02
 3.99658E+03	 8.06000E+02	 7.90000E+02
 3.99974E+03	 7.86000E+02	 7.89000E+02
 4.00290E+03	 7.70000E+02	 7.76000E+02
 4.00606E+03	 7.66000E+02	 7.65000E+02
 4.00922E+03	 7.59000E+02	 7.51000E+02
 4.01237E+03	 7.66000E+02	 7.68000E+02
 4.01552E+03	 7.69000E+02	 7.70000E+02
 4.01868E+03	 7.72000E+02	 7.64000E+02
 4.02183E+03	 7.61000E+02	 7.69000E+02
