-1.68252E+02	 2.26500E+02
-1.62951E+02	 2.26500E+02
-1.57654E+02	 2.27100E+02
-1.52359E+02	 2.27100E+02
-1.47067E+02	 2.27400E+02
-1.41778E+02	 2.26200E+02
-1.36493E+02	 2.26700E+02
-1.31210E+02	 2.26900E+02
-1.25930E+02	 2.27000E+02
-1.20654E+02	 2.27300E+02
-1.15380E+02	 2.27000E+02
-1.10109E+02	 2.27000E+02
-1.04841E+02	 2.27600E+02
-9.95765E+01	 2.27200E+02
-9.43147E+01	 2.27400E+02
-8.90558E+01	 2.27800E+02
-8.37999E+01	 2.27500E+02
-7.85470E+01	 2.27500E+02
-7.32971E+01	 2.27400E+02
-6.80501E+01	 2.27900E+02
-6.28061E+01	 2.28300E+02
-5.75650E+01	 2.28000E+02
-5.23269E+01	 2.27300E+02
-4.70918E+01	 2.27600E+02
-4.18596E+01	 2.28100E+02
-3.66303E+01	 2.28500E+02
-3.14040E+01	 2.28000E+02
-2.61807E+01	 2.29700E+02
-2.09602E+01	 2.30400E+02
-1.57428E+01	 2.33700E+02
-1.05282E+01	 2.68100E+02
-5.31664E+00	 7.19800E+02
-1.07979E-01	 1.78600E+03
 5.09775E+00	 9.97300E+02
 1.03006E+01	 2.78100E+02
 1.55004E+01	 2.33700E+02
 2.06974E+01	 2.30600E+02
 2.58914E+01	 2.29500E+02
 3.10825E+01	 2.29500E+02
 3.62707E+01	 2.29600E+02
 4.14560E+01	 2.29200E+02
 4.66384E+01	 2.29100E+02
 5.18178E+01	 2.29400E+02
 5.69944E+01	 2.30000E+02
 6.21680E+01	 2.29900E+02
 6.73388E+01	 2.29800E+02
 7.25066E+01	 2.30100E+02
 7.76716E+01	 2.29900E+02
 8.28336E+01	 2.30100E+02
 8.79928E+01	 2.30400E+02
 9.31490E+01	 2.31600E+02
 9.83024E+01	 2.31600E+02
 1.03453E+02	 2.32400E+02
 1.08600E+02	 2.35600E+02
 1.13745E+02	 2.40900E+02
 1.18887E+02	 2.57500E+02
 1.24026E+02	 2.96000E+02
 1.29162E+02	 4.00800E+02
 1.34295E+02	 6.08600E+02
 1.39426E+02	 9.05800E+02
 1.44553E+02	 1.23920E+03
 1.49678E+02	 1.54030E+03
 1.54799E+02	 1.84210E+03
 1.59918E+02	 2.03220E+03
 1.65034E+02	 2.05470E+03
 1.70148E+02	 2.02020E+03
 1.75258E+02	 2.05720E+03
 1.80365E+02	 2.16090E+03
 1.85470E+02	 2.33240E+03
 1.90572E+02	 2.43390E+03
 1.95671E+02	 2.38540E+03
 2.00767E+02	 2.45680E+03
 2.05860E+02	 2.79390E+03
 2.10950E+02	 3.20340E+03
 2.16038E+02	 3.49100E+03
 2.21122E+02	 3.77880E+03
 2.26204E+02	 3.93700E+03
 2.31283E+02	 3.79680E+03
 2.36360E+02	 3.96440E+03
 2.41433E+02	 4.32760E+03
 2.46504E+02	 4.29430E+03
 2.51571E+02	 4.05220E+03
 2.56636E+02	 3.95280E+03
 2.61698E+02	 3.94800E+03
 2.66758E+02	 4.01450E+03
 2.71814E+02	 4.05700E+03
 2.76868E+02	 4.13860E+03
 2.81919E+02	 4.21690E+03
 2.86967E+02	 4.11510E+03
 2.92012E+02	 4.13620E+03
 2.97055E+02	 4.15430E+03
 3.02094E+02	 4.08720E+03
 3.07131E+02	 4.12570E+03
 3.12165E+02	 4.05960E+03
 3.17196E+02	 4.08770E+03
 3.22225E+02	 4.13180E+03
 3.27251E+02	 3.95980E+03
 3.32274E+02	 3.89060E+03
 3.37294E+02	 4.16050E+03
 3.42311E+02	 4.28640E+03
 3.47326E+02	 4.20790E+03
 3.52337E+02	 4.15030E+03
 3.57346E+02	 4.09410E+03
 3.62353E+02	 3.95660E+03
 3.67356E+02	 3.85290E+03
 3.72357E+02	 3.92140E+03
 3.77355E+02	 4.09630E+03
 3.82350E+02	 4.13840E+03
 3.87342E+02	 4.03890E+03
 3.92332E+02	 3.85340E+03
 3.97319E+02	 3.89570E+03
 4.02303E+02	 4.03670E+03
 4.07284E+02	 3.89020E+03
 4.12263E+02	 3.82400E+03
 4.17239E+02	 3.94210E+03
 4.22212E+02	 3.89830E+03
 4.27182E+02	 3.75760E+03
 4.32150E+02	 3.73040E+03
 4.37115E+02	 3.77930E+03
 4.42077E+02	 3.86280E+03
 4.47037E+02	 3.86960E+03
 4.51993E+02	 3.75190E+03
 4.56947E+02	 3.61420E+03
 4.61898E+02	 3.53200E+03
 4.66847E+02	 3.43810E+03
 4.71793E+02	 3.46460E+03
 4.76736E+02	 3.49320E+03
 4.81676E+02	 3.62420E+03
 4.86614E+02	 3.63170E+03
 4.91549E+02	 3.57670E+03
 4.96481E+02	 3.53720E+03
 5.01410E+02	 3.59730E+03
 5.06337E+02	 3.66410E+03
 5.11261E+02	 3.57830E+03
 5.16183E+02	 3.46310E+03
 5.21101E+02	 3.49890E+03
 5.26017E+02	 3.66580E+03
 5.30930E+02	 3.63750E+03
 5.35841E+02	 3.54010E+03
 5.40749E+02	 3.56260E+03
 5.45654E+02	 3.53160E+03
 5.50556E+02	 3.57910E+03
 5.55456E+02	 3.58970E+03
 5.60353E+02	 3.61880E+03
 5.65248E+02	 3.57310E+03
 5.70139E+02	 3.43440E+03
 5.75028E+02	 3.39780E+03
 5.79915E+02	 3.38100E+03
 5.84798E+02	 3.33620E+03
 5.89679E+02	 3.27930E+03
 5.94558E+02	 3.24430E+03
 5.99433E+02	 3.27920E+03
 6.04306E+02	 3.28180E+03
 6.09177E+02	 3.31600E+03
 6.14044E+02	 3.31920E+03
 6.18909E+02	 3.28710E+03
 6.23772E+02	 3.21770E+03
 6.28631E+02	 3.06880E+03
 6.33488E+02	 2.98960E+03
 6.38343E+02	 3.02280E+03
 6.43194E+02	 3.10870E+03
 6.48044E+02	 3.22850E+03
 6.52890E+02	 3.32470E+03
 6.57734E+02	 3.25680E+03
 6.62575E+02	 3.10910E+03
 6.67413E+02	 3.11990E+03
 6.72249E+02	 3.23840E+03
 6.77082E+02	 3.27720E+03
 6.81913E+02	 3.26260E+03
 6.86741E+02	 3.15470E+03
 6.91566E+02	 3.06540E+03
 6.96389E+02	 3.00380E+03
 7.01209E+02	 3.03210E+03
 7.06026E+02	 3.06730E+03
 7.10841E+02	 3.08870E+03
 7.15653E+02	 3.01650E+03
 7.20463E+02	 2.91750E+03
 7.25270E+02	 2.98100E+03
 7.30074E+02	 3.01090E+03
 7.34876E+02	 3.03410E+03
 7.39675E+02	 3.03150E+03
 7.44471E+02	 2.96010E+03
 7.49265E+02	 2.91130E+03
 7.54057E+02	 2.89120E+03
 7.58845E+02	 2.88450E+03
 7.63631E+02	 2.85750E+03
 7.68415E+02	 2.95070E+03
 7.73196E+02	 3.07130E+03
 7.77974E+02	 2.94430E+03
 7.82750E+02	 2.68290E+03
 7.87523E+02	 2.62160E+03
 7.92293E+02	 2.81230E+03
 7.97061E+02	 2.92620E+03
 8.01826E+02	 2.98740E+03
 8.06589E+02	 2.98040E+03
 8.11349E+02	 2.86860E+03
 8.16107E+02	 2.79240E+03
 8.20862E+02	 2.89330E+03
 8.25614E+02	 2.98510E+03
 8.30364E+02	 2.89800E+03
 8.35111E+02	 2.79110E+03
 8.39856E+02	 2.82630E+03
 8.44598E+02	 2.96990E+03
 8.49338E+02	 3.09730E+03
 8.54075E+02	 3.12850E+03
 8.58809E+02	 3.06790E+03
 8.63541E+02	 2.99160E+03
 8.68271E+02	 2.97470E+03
 8.72997E+02	 2.95560E+03
 8.77722E+02	 3.03270E+03
 8.82443E+02	 3.11510E+03
 8.87162E+02	 3.14150E+03
 8.91879E+02	 3.08330E+03
 8.96593E+02	 3.02470E+03
 9.01304E+02	 2.90940E+03
 9.06013E+02	 2.78930E+03
 9.10720E+02	 2.77180E+03
 9.15424E+02	 2.78540E+03
 9.20125E+02	 2.80480E+03
 9.24824E+02	 2.81760E+03
 9.29520E+02	 2.87950E+03
 9.34214E+02	 2.78210E+03
 9.38905E+02	 2.65400E+03
 9.43594E+02	 2.62890E+03
 9.48280E+02	 2.69260E+03
 9.52963E+02	 2.69330E+03
 9.57644E+02	 2.76020E+03
 9.62323E+02	 2.82430E+03
 9.66999E+02	 2.85680E+03
 9.71673E+02	 2.83390E+03
 9.76344E+02	 2.92550E+03
 9.81012E+02	 2.90030E+03
 9.85678E+02	 2.84210E+03
 9.90342E+02	 2.83940E+03
 9.95003E+02	 2.82440E+03
 9.99661E+02	 2.82610E+03
 1.00432E+03	 2.81870E+03
 1.00897E+03	 2.83110E+03
 1.01362E+03	 2.86550E+03
 1.01827E+03	 2.96550E+03
 1.02292E+03	 3.02150E+03
 1.02756E+03	 2.91700E+03
 1.03220E+03	 2.86900E+03
 1.03684E+03	 2.97030E+03
 1.04148E+03	 3.01080E+03
 1.04611E+03	 3.05940E+03
 1.05074E+03	 3.11530E+03
 1.05537E+03	 3.05810E+03
 1.05999E+03	 3.05160E+03
 1.06462E+03	 3.10100E+03
 1.06924E+03	 3.20920E+03
 1.07386E+03	 3.26400E+03
 1.07847E+03	 3.30060E+03
 1.08309E+03	 3.30460E+03
 1.08770E+03	 3.24670E+03
 1.09231E+03	 3.18200E+03
 1.09691E+03	 3.13540E+03
 1.10152E+03	 3.13550E+03
 1.10612E+03	 3.13230E+03
 1.11072E+03	 3.25190E+03
 1.11531E+03	 3.33940E+03
 1.11991E+03	 3.25270E+03
 1.12450E+03	 3.18250E+03
 1.12909E+03	 3.20310E+03
 1.13368E+03	 3.21730E+03
 1.13826E+03	 3.15540E+03
 1.14284E+03	 3.14510E+03
 1.14742E+03	 3.16860E+03
 1.15200E+03	 3.23220E+03
 1.15657E+03	 3.36180E+03
 1.16115E+03	 3.34270E+03
 1.16571E+03	 3.29630E+03
 1.17028E+03	 3.35480E+03
 1.17485E+03	 3.42320E+03
 1.17941E+03	 3.49160E+03
 1.18397E+03	 3.36290E+03
 1.18853E+03	 3.26810E+03
 1.19308E+03	 3.34130E+03
 1.19763E+03	 3.48270E+03
 1.20218E+03	 3.60430E+03
 1.20673E+03	 3.63690E+03
 1.21128E+03	 3.68520E+03
 1.21582E+03	 3.64250E+03
 1.22036E+03	 3.67860E+03
 1.22490E+03	 3.71540E+03
 1.22943E+03	 3.72360E+03
 1.23397E+03	 3.70960E+03
 1.23850E+03	 3.73300E+03
 1.24303E+03	 3.77050E+03
 1.24755E+03	 3.90520E+03
 1.25208E+03	 4.04660E+03
 1.25660E+03	 4.02070E+03
 1.26112E+03	 3.90080E+03
 1.26563E+03	 3.85070E+03
 1.27015E+03	 3.88380E+03
 1.27466E+03	 3.92910E+03
 1.27917E+03	 4.09180E+03
 1.28367E+03	 4.25990E+03
 1.28818E+03	 4.29880E+03
 1.29268E+03	 4.22160E+03
 1.29718E+03	 4.36950E+03
 1.30168E+03	 4.67540E+03
 1.30617E+03	 4.81550E+03
 1.31067E+03	 4.79080E+03
 1.31516E+03	 4.70020E+03
 1.31964E+03	 4.64930E+03
 1.32413E+03	 4.56130E+03
 1.32861E+03	 4.55500E+03
 1.33309E+03	 4.59930E+03
 1.33757E+03	 4.50040E+03
 1.34205E+03	 4.47790E+03
 1.34652E+03	 4.58400E+03
 1.35099E+03	 4.55630E+03
 1.35546E+03	 4.54690E+03
 1.35993E+03	 4.61230E+03
 1.36439E+03	 4.64920E+03
 1.36885E+03	 4.72330E+03
 1.37331E+03	 4.81550E+03
 1.37777E+03	 4.86990E+03
 1.38222E+03	 4.82200E+03
 1.38668E+03	 4.77510E+03
 1.39113E+03	 4.81260E+03
 1.39557E+03	 4.89390E+03
 1.40002E+03	 4.91940E+03
 1.40446E+03	 4.82560E+03
 1.40890E+03	 4.81430E+03
 1.41334E+03	 4.98080E+03
 1.41778E+03	 5.15990E+03
 1.42221E+03	 5.26040E+03
 1.42664E+03	 5.24280E+03
 1.43107E+03	 5.25970E+03
 1.43550E+03	 5.39750E+03
 1.43992E+03	 5.64800E+03
 1.44434E+03	 5.84850E+03
 1.44876E+03	 5.84720E+03
 1.45318E+03	 5.88060E+03
 1.45760E+03	 5.87870E+03
 1.46201E+03	 5.85790E+03
 1.46642E+03	 5.65180E+03
 1.47083E+03	 5.43380E+03
 1.47523E+03	 5.32300E+03
 1.47964E+03	 5.23060E+03
 1.48404E+03	 5.34780E+03
 1.48844E+03	 5.47120E+03
 1.49283E+03	 5.49370E+03
 1.49723E+03	 5.37300E+03
 1.50162E+03	 5.25330E+03
 1.50601E+03	 5.20620E+03
 1.51040E+03	 5.22780E+03
 1.51478E+03	 5.28450E+03
 1.51916E+03	 5.30630E+03
 1.52354E+03	 5.30540E+03
 1.52792E+03	 5.25690E+03
 1.53230E+03	 5.30730E+03
 1.53667E+03	 5.36030E+03
 1.54104E+03	 5.35500E+03
 1.54541E+03	 5.43920E+03
 1.54978E+03	 5.46930E+03
 1.55414E+03	 5.26750E+03
 1.55851E+03	 5.12440E+03
 1.56287E+03	 5.20810E+03
 1.56722E+03	 5.44840E+03
 1.57158E+03	 5.57190E+03
 1.57593E+03	 5.56500E+03
 1.58028E+03	 5.41050E+03
 1.58463E+03	 5.25490E+03
 1.58898E+03	 5.35650E+03
 1.59332E+03	 5.46780E+03
 1.59766E+03	 5.32480E+03
 1.60200E+03	 5.33410E+03
 1.60634E+03	 5.45360E+03
 1.61067E+03	 5.45190E+03
 1.61501E+03	 5.23390E+03
 1.61934E+03	 5.01800E+03
 1.62366E+03	 4.97290E+03
 1.62799E+03	 5.09710E+03
 1.63231E+03	 5.21590E+03
 1.63663E+03	 5.24590E+03
 1.64095E+03	 5.13940E+03
 1.64527E+03	 5.06800E+03
 1.64959E+03	 5.15210E+03
 1.65390E+03	 5.31340E+03
 1.65821E+03	 5.29050E+03
 1.66252E+03	 5.19440E+03
 1.66682E+03	 5.21850E+03
 1.67112E+03	 5.19320E+03
 1.67543E+03	 5.05530E+03
 1.67972E+03	 5.02130E+03
 1.68402E+03	 4.85480E+03
 1.68832E+03	 4.96060E+03
 1.69261E+03	 5.13830E+03
 1.69690E+03	 5.13080E+03
 1.70119E+03	 5.08020E+03
 1.70547E+03	 5.07130E+03
 1.70975E+03	 5.03540E+03
 1.71403E+03	 4.95540E+03
 1.71831E+03	 4.82290E+03
 1.72259E+03	 4.85360E+03
 1.72686E+03	 4.92890E+03
 1.73114E+03	 4.92340E+03
 1.73541E+03	 4.88630E+03
 1.73967E+03	 4.90510E+03
 1.74394E+03	 4.93050E+03
 1.74820E+03	 5.01300E+03
 1.75246E+03	 5.14470E+03
 1.75672E+03	 5.11050E+03
 1.76098E+03	 4.72660E+03
 1.76523E+03	 4.48250E+03
 1.76949E+03	 4.53420E+03
 1.77374E+03	 4.50420E+03
 1.77798E+03	 4.53270E+03
 1.78223E+03	 4.58870E+03
 1.78647E+03	 4.52280E+03
 1.79072E+03	 4.44390E+03
 1.79495E+03	 4.45800E+03
 1.79919E+03	 4.58330E+03
 1.80343E+03	 4.64200E+03
 1.80766E+03	 4.46480E+03
 1.81189E+03	 4.33220E+03
 1.81612E+03	 4.29640E+03
 1.82034E+03	 4.35250E+03
 1.82457E+03	 4.40830E+03
 1.82879E+03	 4.50600E+03
 1.83301E+03	 4.55350E+03
 1.83723E+03	 4.49470E+03
 1.84144E+03	 4.34030E+03
 1.84565E+03	 4.14560E+03
 1.84986E+03	 4.01610E+03
 1.85407E+03	 3.96950E+03
 1.85828E+03	 4.00440E+03
 1.86248E+03	 4.16600E+03
 1.86669E+03	 4.37010E+03
 1.87089E+03	 4.32710E+03
 1.87508E+03	 4.12720E+03
 1.87928E+03	 3.98540E+03
 1.88347E+03	 3.88640E+03
 1.88766E+03	 3.92830E+03
 1.89185E+03	 3.97020E+03
 1.89604E+03	 4.06040E+03
 1.90022E+03	 4.05530E+03
 1.90441E+03	 3.88210E+03
 1.90859E+03	 3.80810E+03
 1.91277E+03	 3.86010E+03
 1.91694E+03	 3.88480E+03
 1.92112E+03	 3.81530E+03
 1.92529E+03	 3.76200E+03
 1.92946E+03	 3.74610E+03
 1.93363E+03	 3.83890E+03
 1.93779E+03	 3.85710E+03
 1.94195E+03	 3.76180E+03
 1.94612E+03	 3.65260E+03
 1.95027E+03	 3.66790E+03
 1.95443E+03	 3.59930E+03
 1.95859E+03	 3.55850E+03
 1.96274E+03	 3.56240E+03
 1.96689E+03	 3.57100E+03
 1.97104E+03	 3.57480E+03
 1.97518E+03	 3.49530E+03
 1.97933E+03	 3.38670E+03
 1.98347E+03	 3.35140E+03
 1.98761E+03	 3.35830E+03
 1.99175E+03	 3.37070E+03
 1.99588E+03	 3.43330E+03
 2.00002E+03	 3.36600E+03
 2.00415E+03	 3.22550E+03
 2.00828E+03	 3.20700E+03
 2.01241E+03	 3.24660E+03
 2.01653E+03	 3.27110E+03
 2.02065E+03	 3.35530E+03
 2.02477E+03	 3.34960E+03
 2.02889E+03	 3.20840E+03
 2.03301E+03	 3.18770E+03
 2.03712E+03	 3.27830E+03
 2.04124E+03	 3.28250E+03
 2.04535E+03	 3.30010E+03
 2.04946E+03	 3.31320E+03
 2.05356E+03	 3.26240E+03
 2.05767E+03	 3.16440E+03
 2.06177E+03	 3.10140E+03
 2.06587E+03	 3.07020E+03
 2.06997E+03	 3.08390E+03
 2.07406E+03	 3.07130E+03
 2.07816E+03	 2.98790E+03
 2.08225E+03	 2.97970E+03
 2.08634E+03	 3.00750E+03
 2.09042E+03	 2.98390E+03
 2.09451E+03	 2.96340E+03
 2.09859E+03	 2.96450E+03
 2.10267E+03	 3.01320E+03
 2.10675E+03	 3.03330E+03
 2.11083E+03	 3.03380E+03
 2.11490E+03	 2.96130E+03
 2.11898E+03	 2.89260E+03
 2.12305E+03	 2.80540E+03
 2.12712E+03	 2.83920E+03
 2.13118E+03	 2.87930E+03
 2.13525E+03	 2.91000E+03
 2.13931E+03	 2.88830E+03
 2.14337E+03	 2.88380E+03
 2.14743E+03	 2.83880E+03
 2.15149E+03	 2.83640E+03
 2.15554E+03	 2.78890E+03
 2.15959E+03	 2.68940E+03
 2.16364E+03	 2.72800E+03
 2.16769E+03	 2.80860E+03
 2.17174E+03	 2.69080E+03
 2.17578E+03	 2.65810E+03
 2.17982E+03	 2.74310E+03
 2.18386E+03	 2.71960E+03
 2.18790E+03	 2.70960E+03
 2.19194E+03	 2.71050E+03
 2.19597E+03	 2.69310E+03
 2.20000E+03	 2.68100E+03
 2.20403E+03	 2.68980E+03
 2.20806E+03	 2.67470E+03
 2.21208E+03	 2.62480E+03
 2.21611E+03	 2.56520E+03
 2.22013E+03	 2.55690E+03
 2.22415E+03	 2.55740E+03
 2.22817E+03	 2.56320E+03
 2.23218E+03	 2.54800E+03
 2.23620E+03	 2.54620E+03
 2.24021E+03	 2.58510E+03
 2.24422E+03	 2.57470E+03
 2.24822E+03	 2.57900E+03
 2.25223E+03	 2.59200E+03
 2.25623E+03	 2.58410E+03
 2.26023E+03	 2.53910E+03
 2.26423E+03	 2.51420E+03
 2.26823E+03	 2.52260E+03
 2.27223E+03	 2.49190E+03
 2.27622E+03	 2.46030E+03
 2.28021E+03	 2.40880E+03
 2.28420E+03	 2.41660E+03
 2.28819E+03	 2.46160E+03
 2.29217E+03	 2.49590E+03
 2.29615E+03	 2.54020E+03
 2.30014E+03	 2.45530E+03
 2.30411E+03	 2.32190E+03
 2.30809E+03	 2.26610E+03
 2.31207E+03	 2.33490E+03
 2.31604E+03	 2.39040E+03
 2.32001E+03	 2.45000E+03
 2.32398E+03	 2.49190E+03
 2.32795E+03	 2.47450E+03
 2.33191E+03	 2.39000E+03
 2.33587E+03	 2.32620E+03
 2.33984E+03	 2.25880E+03
 2.34380E+03	 2.24450E+03
 2.34775E+03	 2.29410E+03
 2.35171E+03	 2.34900E+03
 2.35566E+03	 2.36780E+03
 2.35961E+03	 2.30160E+03
 2.36356E+03	 2.23670E+03
 2.36751E+03	 2.22210E+03
 2.37145E+03	 2.24620E+03
 2.37540E+03	 2.32200E+03
 2.37934E+03	 2.31190E+03
 2.38328E+03	 2.23710E+03
 2.38721E+03	 2.19510E+03
 2.39115E+03	 2.23030E+03
 2.39508E+03	 2.29420E+03
 2.39901E+03	 2.33250E+03
 2.40294E+03	 2.29870E+03
 2.40687E+03	 2.26300E+03
 2.41080E+03	 2.25470E+03
 2.41472E+03	 2.25250E+03
 2.41864E+03	 2.20420E+03
 2.42256E+03	 2.21250E+03
 2.42648E+03	 2.25070E+03
 2.43039E+03	 2.28740E+03
 2.43431E+03	 2.30180E+03
 2.43822E+03	 2.27020E+03
 2.44213E+03	 2.24880E+03
 2.44604E+03	 2.21710E+03
 2.44994E+03	 2.19650E+03
 2.45385E+03	 2.21150E+03
 2.45775E+03	 2.20750E+03
 2.46165E+03	 2.19120E+03
 2.46555E+03	 2.19830E+03
 2.46944E+03	 2.20460E+03
 2.47334E+03	 2.17180E+03
 2.47723E+03	 2.13510E+03
 2.48112E+03	 2.17940E+03
 2.48501E+03	 2.20910E+03
 2.48889E+03	 2.18040E+03
 2.49278E+03	 2.18000E+03
 2.49666E+03	 2.20420E+03
 2.50054E+03	 2.22130E+03
 2.50442E+03	 2.20260E+03
 2.50830E+03	 2.12960E+03
 2.51217E+03	 2.13640E+03
 2.51604E+03	 2.16770E+03
 2.51992E+03	 2.20650E+03
 2.52378E+03	 2.25190E+03
 2.52765E+03	 2.25420E+03
 2.53152E+03	 2.23250E+03
 2.53538E+03	 2.20240E+03
 2.53924E+03	 2.16700E+03
 2.54310E+03	 2.18740E+03
 2.54696E+03	 2.22980E+03
 2.55081E+03	 2.23180E+03
 2.55467E+03	 2.23220E+03
 2.55852E+03	 2.27350E+03
 2.56237E+03	 2.28920E+03
 2.56622E+03	 2.24830E+03
 2.57006E+03	 2.20980E+03
 2.57391E+03	 2.24700E+03
 2.57775E+03	 2.29510E+03
 2.58159E+03	 2.30170E+03
 2.58543E+03	 2.25310E+03
 2.58926E+03	 2.21740E+03
 2.59310E+03	 2.18940E+03
 2.59693E+03	 2.18790E+03
 2.60076E+03	 2.25060E+03
 2.60459E+03	 2.30220E+03
 2.60842E+03	 2.28670E+03
 2.61224E+03	 2.30190E+03
 2.61606E+03	 2.30580E+03
 2.61989E+03	 2.21510E+03
 2.62370E+03	 2.14630E+03
 2.62752E+03	 2.18230E+03
 2.63134E+03	 2.26290E+03
 2.63515E+03	 2.28770E+03
 2.63896E+03	 2.30220E+03
 2.64277E+03	 2.27860E+03
 2.64658E+03	 2.23780E+03
 2.65039E+03	 2.26340E+03
 2.65419E+03	 2.34300E+03
 2.65799E+03	 2.39840E+03
 2.66179E+03	 2.40920E+03
 2.66559E+03	 2.38290E+03
 2.66939E+03	 2.33430E+03
 2.67318E+03	 2.33600E+03
 2.67698E+03	 2.37000E+03
 2.68077E+03	 2.34450E+03
 2.68456E+03	 2.34580E+03
 2.68834E+03	 2.38910E+03
 2.69213E+03	 2.40610E+03
 2.69591E+03	 2.39270E+03
 2.69969E+03	 2.41890E+03
 2.70347E+03	 2.48240E+03
 2.70725E+03	 2.53930E+03
 2.71103E+03	 2.48440E+03
 2.71480E+03	 2.46350E+03
 2.71857E+03	 2.49370E+03
 2.72235E+03	 2.53480E+03
 2.72611E+03	 2.55820E+03
 2.72988E+03	 2.57630E+03
 2.73365E+03	 2.52760E+03
 2.73741E+03	 2.51480E+03
 2.74117E+03	 2.47700E+03
 2.74493E+03	 2.46120E+03
 2.74869E+03	 2.43980E+03
 2.75244E+03	 2.38730E+03
 2.75620E+03	 2.36180E+03
 2.75995E+03	 2.38110E+03
 2.76370E+03	 2.38550E+03
 2.76745E+03	 2.35320E+03
 2.77119E+03	 2.37480E+03
 2.77494E+03	 2.40830E+03
 2.77868E+03	 2.37820E+03
 2.78242E+03	 2.34910E+03
 2.78616E+03	 2.36720E+03
 2.78990E+03	 2.38920E+03
 2.79363E+03	 2.38740E+03
 2.79737E+03	 2.41570E+03
 2.80110E+03	 2.46440E+03
 2.80483E+03	 2.49880E+03
 2.80856E+03	 2.51270E+03
 2.81228E+03	 2.57600E+03
 2.81601E+03	 2.69210E+03
 2.81973E+03	 2.72140E+03
 2.82345E+03	 2.66240E+03
 2.82717E+03	 2.62420E+03
 2.83088E+03	 2.65320E+03
 2.83460E+03	 2.79240E+03
 2.83831E+03	 3.01660E+03
 2.84203E+03	 3.33770E+03
 2.84573E+03	 3.97830E+03
 2.84944E+03	 4.90550E+03
 2.85315E+03	 5.53800E+03
 2.85685E+03	 5.60050E+03
 2.86056E+03	 5.41320E+03
 2.86426E+03	 5.24900E+03
 2.86796E+03	 5.02330E+03
 2.87165E+03	 5.01720E+03
 2.87535E+03	 5.04930E+03
 2.87904E+03	 5.04320E+03
 2.88273E+03	 5.15400E+03
 2.88642E+03	 5.33650E+03
 2.89011E+03	 5.53280E+03
 2.89380E+03	 5.76490E+03
 2.89748E+03	 5.85580E+03
 2.90116E+03	 5.68880E+03
 2.90484E+03	 5.50110E+03
 2.90852E+03	 5.46780E+03
 2.91220E+03	 5.53670E+03
 2.91588E+03	 5.53050E+03
 2.91955E+03	 5.43360E+03
 2.92322E+03	 5.49800E+03
 2.92689E+03	 5.65540E+03
 2.93056E+03	 5.63340E+03
 2.93423E+03	 5.40370E+03
 2.93789E+03	 5.17040E+03
 2.94155E+03	 4.96720E+03
 2.94522E+03	 4.64590E+03
 2.94887E+03	 4.26210E+03
 2.95253E+03	 3.91250E+03
 2.95619E+03	 3.81420E+03
 2.95984E+03	 3.86250E+03
 2.96349E+03	 3.76570E+03
 2.96714E+03	 3.60970E+03
 2.97079E+03	 3.44660E+03
 2.97444E+03	 3.23870E+03
 2.97809E+03	 3.13350E+03
 2.98173E+03	 3.01240E+03
 2.98537E+03	 2.92370E+03
 2.98901E+03	 2.88890E+03
 2.99265E+03	 2.78060E+03
 2.99628E+03	 2.67110E+03
 2.99992E+03	 2.66990E+03
 3.00355E+03	 2.70660E+03
 3.00718E+03	 2.71710E+03
 3.01081E+03	 2.67230E+03
 3.01444E+03	 2.56490E+03
 3.01806E+03	 2.52860E+03
 3.02169E+03	 2.50290E+03
 3.02531E+03	 2.47670E+03
 3.02893E+03	 2.42340E+03
 3.03255E+03	 2.38410E+03
 3.03617E+03	 2.34720E+03
 3.03978E+03	 2.34380E+03
 3.04339E+03	 2.30390E+03
 3.04701E+03	 2.23300E+03
 3.05062E+03	 2.21340E+03
 3.05422E+03	 2.28630E+03
 3.05783E+03	 2.34530E+03
 3.06144E+03	 2.32600E+03
 3.06504E+03	 2.32290E+03
 3.06864E+03	 2.30580E+03
 3.07224E+03	 2.26670E+03
 3.07584E+03	 2.25350E+03
 3.07943E+03	 2.32390E+03
 3.08303E+03	 2.37240E+03
 3.08662E+03	 2.35730E+03
 3.09021E+03	 2.30360E+03
 3.09380E+03	 2.28290E+03
 3.09739E+03	 2.25510E+03
 3.10097E+03	 2.26690E+03
 3.10455E+03	 2.28110E+03
 3.10814E+03	 2.23280E+03
 3.11172E+03	 2.17040E+03
 3.11530E+03	 2.12350E+03
 3.11887E+03	 2.09980E+03
 3.12245E+03	 2.13080E+03
 3.12602E+03	 2.14970E+03
 3.12959E+03	 2.23850E+03
 3.13316E+03	 2.31640E+03
 3.13673E+03	 2.27590E+03
 3.14030E+03	 2.24580E+03
 3.14386E+03	 2.22940E+03
 3.14742E+03	 2.19260E+03
 3.15099E+03	 2.15540E+03
 3.15455E+03	 2.14220E+03
 3.15810E+03	 2.13460E+03
 3.16166E+03	 2.13600E+03
 3.16521E+03	 2.17810E+03
 3.16877E+03	 2.24070E+03
 3.17232E+03	 2.25120E+03
 3.17587E+03	 2.19680E+03
 3.17941E+03	 2.13920E+03
 3.18296E+03	 2.08350E+03
 3.18650E+03	 2.05960E+03
 3.19005E+03	 2.10570E+03
 3.19359E+03	 2.13960E+03
 3.19713E+03	 2.10850E+03
 3.20066E+03	 2.07190E+03
 3.20420E+03	 2.01910E+03
 3.20773E+03	 1.99500E+03
 3.21127E+03	 2.01610E+03
 3.21480E+03	 2.04450E+03
 3.21832E+03	 2.07380E+03
 3.22185E+03	 2.05170E+03
 3.22538E+03	 2.02650E+03
 3.22890E+03	 2.01900E+03
 3.23242E+03	 2.02480E+03
 3.23594E+03	 1.98680E+03
 3.23946E+03	 1.96310E+03
 3.24298E+03	 2.00990E+03
 3.24649E+03	 2.03730E+03
 3.25001E+03	 1.99820E+03
 3.25352E+03	 2.00590E+03
 3.25703E+03	 2.02950E+03
 3.26054E+03	 2.01940E+03
 3.26405E+03	 1.96080E+03
 3.26755E+03	 1.97720E+03
 3.27105E+03	 1.99470E+03
 3.27456E+03	 1.95250E+03
 3.27806E+03	 1.88590E+03
 3.28155E+03	 1.87660E+03
 3.28505E+03	 1.91390E+03
 3.28855E+03	 1.92110E+03
 3.29204E+03	 1.89040E+03
 3.29553E+03	 1.84060E+03
 3.29902E+03	 1.80690E+03
 3.30251E+03	 1.81080E+03
 3.30600E+03	 1.81700E+03
 3.30948E+03	 1.81380E+03
 3.31297E+03	 1.81980E+03
 3.31645E+03	 1.82780E+03
 3.31993E+03	 1.84630E+03
 3.32341E+03	 1.87780E+03
 3.32688E+03	 1.87430E+03
 3.33036E+03	 1.85790E+03
 3.33383E+03	 1.84590E+03
 3.33730E+03	 1.84030E+03
 3.34077E+03	 1.82870E+03
 3.34424E+03	 1.80360E+03
 3.34771E+03	 1.79700E+03
 3.35117E+03	 1.78980E+03
 3.35464E+03	 1.77730E+03
 3.35810E+03	 1.84330E+03
 3.36156E+03	 1.86870E+03
 3.36502E+03	 1.79870E+03
 3.36848E+03	 1.73190E+03
 3.37193E+03	 1.69000E+03
 3.37538E+03	 1.68670E+03
 3.37884E+03	 1.71330E+03
 3.38229E+03	 1.72900E+03
 3.38574E+03	 1.71590E+03
 3.38918E+03	 1.72740E+03
 3.39263E+03	 1.74640E+03
 3.39607E+03	 1.76010E+03
 3.39951E+03	 1.75610E+03
 3.40295E+03	 1.72460E+03
 3.40639E+03	 1.69530E+03
 3.40983E+03	 1.69920E+03
 3.41327E+03	 1.71690E+03
 3.41670E+03	 1.72460E+03
 3.42013E+03	 1.69870E+03
 3.42356E+03	 1.66040E+03
 3.42699E+03	 1.65900E+03
 3.43042E+03	 1.67680E+03
 3.43384E+03	 1.66640E+03
 3.43727E+03	 1.64510E+03
 3.44069E+03	 1.67460E+03
 3.44411E+03	 1.67240E+03
 3.44753E+03	 1.64460E+03
 3.45095E+03	 1.63800E+03
 3.45437E+03	 1.63240E+03
 3.45778E+03	 1.63560E+03
 3.46119E+03	 1.63020E+03
 3.46460E+03	 1.61590E+03
 3.46801E+03	 1.61650E+03
 3.47142E+03	 1.61500E+03
 3.47483E+03	 1.58940E+03
 3.47823E+03	 1.54670E+03
 3.48164E+03	 1.54110E+03
 3.48504E+03	 1.55850E+03
 3.48844E+03	 1.53750E+03
 3.49184E+03	 1.48550E+03
 3.49523E+03	 1.45190E+03
 3.49863E+03	 1.46840E+03
 3.50202E+03	 1.50380E+03
 3.50541E+03	 1.53550E+03
 3.50880E+03	 1.54100E+03
 3.51219E+03	 1.55350E+03
 3.51558E+03	 1.59340E+03
 3.51896E+03	 1.56780E+03
 3.52235E+03	 1.52990E+03
 3.52573E+03	 1.50740E+03
 3.52911E+03	 1.49580E+03
 3.53249E+03	 1.53910E+03
 3.53587E+03	 1.58290E+03
 3.53924E+03	 1.57570E+03
 3.54262E+03	 1.50710E+03
 3.54599E+03	 1.43640E+03
 3.54936E+03	 1.41440E+03
 3.55273E+03	 1.41410E+03
 3.55610E+03	 1.42910E+03
 3.55946E+03	 1.43210E+03
 3.56283E+03	 1.44140E+03
 3.56619E+03	 1.42550E+03
 3.56955E+03	 1.42760E+03
 3.57291E+03	 1.44280E+03
 3.57627E+03	 1.44120E+03
 3.57963E+03	 1.40390E+03
 3.58298E+03	 1.34790E+03
 3.58634E+03	 1.31850E+03
 3.58969E+03	 1.31630E+03
 3.59304E+03	 1.33090E+03
 3.59639E+03	 1.36650E+03
 3.59974E+03	 1.39590E+03
 3.60308E+03	 1.38300E+03
 3.60643E+03	 1.34020E+03
 3.60977E+03	 1.33290E+03
 3.61311E+03	 1.32840E+03
 3.61645E+03	 1.31890E+03
 3.61979E+03	 1.31370E+03
 3.62312E+03	 1.31500E+03
 3.62646E+03	 1.33730E+03
 3.62979E+03	 1.34220E+03
 3.63312E+03	 1.33280E+03
 3.63645E+03	 1.31690E+03
 3.63978E+03	 1.30210E+03
 3.64311E+03	 1.28030E+03
 3.64643E+03	 1.24760E+03
 3.64976E+03	 1.25350E+03
 3.65308E+03	 1.29780E+03
 3.65640E+03	 1.33160E+03
 3.65972E+03	 1.35490E+03
 3.66304E+03	 1.35660E+03
 3.66635E+03	 1.34820E+03
 3.66967E+03	 1.29920E+03
 3.67298E+03	 1.26360E+03
 3.67629E+03	 1.25840E+03
 3.67960E+03	 1.24420E+03
 3.68291E+03	 1.22630E+03
 3.68621E+03	 1.22130E+03
 3.68952E+03	 1.24720E+03
 3.69282E+03	 1.26590E+03
 3.69613E+03	 1.25120E+03
 3.69943E+03	 1.23650E+03
 3.70272E+03	 1.21970E+03
 3.70602E+03	 1.19600E+03
 3.70932E+03	 1.16240E+03
 3.71261E+03	 1.16610E+03
 3.71591E+03	 1.21020E+03
 3.71920E+03	 1.22580E+03
 3.72249E+03	 1.23040E+03
 3.72577E+03	 1.23070E+03
 3.72906E+03	 1.21090E+03
 3.73235E+03	 1.20390E+03
 3.73563E+03	 1.21380E+03
 3.73891E+03	 1.22690E+03
 3.74219E+03	 1.21410E+03
 3.74547E+03	 1.19480E+03
 3.74875E+03	 1.17090E+03
 3.75202E+03	 1.15790E+03
 3.75530E+03	 1.14050E+03
 3.75857E+03	 1.13500E+03
 3.76184E+03	 1.14990E+03
 3.76511E+03	 1.17940E+03
 3.76838E+03	 1.20470E+03
 3.77165E+03	 1.20260E+03
 3.77491E+03	 1.19500E+03
 3.77818E+03	 1.16860E+03
 3.78144E+03	 1.17050E+03
 3.78470E+03	 1.16890E+03
 3.78796E+03	 1.17150E+03
 3.79121E+03	 1.16470E+03
 3.79447E+03	 1.16500E+03
 3.79772E+03	 1.17520E+03
 3.80098E+03	 1.18010E+03
 3.80423E+03	 1.17550E+03
 3.80748E+03	 1.17240E+03
 3.81073E+03	 1.16090E+03
 3.81397E+03	 1.13700E+03
 3.81722E+03	 1.09700E+03
 3.82046E+03	 1.07220E+03
 3.82371E+03	 1.06640E+03
 3.82695E+03	 1.06360E+03
 3.83019E+03	 1.08640E+03
 3.83342E+03	 1.11390E+03
 3.83666E+03	 1.12760E+03
 3.83990E+03	 1.12350E+03
 3.84313E+03	 1.09850E+03
 3.84636E+03	 1.07440E+03
 3.84959E+03	 1.05430E+03
 3.85282E+03	 1.06570E+03
 3.85605E+03	 1.11060E+03
 3.85927E+03	 1.13530E+03
 3.86250E+03	 1.14940E+03
 3.86572E+03	 1.13110E+03
 3.86894E+03	 1.10380E+03
 3.87216E+03	 1.09140E+03
 3.87538E+03	 1.09420E+03
 3.87860E+03	 1.09840E+03
 3.88181E+03	 1.09910E+03
 3.88503E+03	 1.09530E+03
 3.88824E+03	 1.07150E+03
 3.89145E+03	 1.07470E+03
 3.89466E+03	 1.10350E+03
 3.89787E+03	 1.12610E+03
 3.90107E+03	 1.14110E+03
 3.90428E+03	 1.13090E+03
 3.90748E+03	 1.10630E+03
 3.91068E+03	 1.09280E+03
 3.91388E+03	 1.11280E+03
 3.91708E+03	 1.12270E+03
 3.92028E+03	 1.10680E+03
 3.92348E+03	 1.09330E+03
 3.92667E+03	 1.07490E+03
 3.92987E+03	 1.06030E+03
 3.93306E+03	 1.04300E+03
 3.93625E+03	 1.04180E+03
 3.93944E+03	 1.07090E+03
 3.94262E+03	 1.09410E+03
 3.94581E+03	 1.10690E+03
 3.94899E+03	 1.10010E+03
 3.95218E+03	 1.07840E+03
 3.95536E+03	 1.05690E+03
 3.95854E+03	 1.05410E+03
 3.96172E+03	 1.07150E+03
 3.96489E+03	 1.08370E+03
 3.96807E+03	 1.08000E+03
 3.97124E+03	 1.07250E+03
 3.97441E+03	 1.07450E+03
 3.97759E+03	 1.07980E+03
 3.98076E+03	 1.08170E+03
 3.98392E+03	 1.06090E+03
 3.98709E+03	 1.03850E+03
 3.99026E+03	 1.01380E+03
 3.99342E+03	 9.85300E+02
 3.99658E+03	 9.69800E+02
 3.99974E+03	 9.91800E+02
 4.00290E+03	 1.03810E+03
 4.00606E+03	 1.07850E+03
 4.00922E+03	 1.09480E+03
 4.01237E+03	 1.07760E+03
 4.01552E+03	 1.05660E+03
 4.01868E+03	 1.05270E+03
 4.02183E+03	 1.03860E+03
