-1.68252E+02	 2.26800E+02
-1.62951E+02	 2.27200E+02
-1.57654E+02	 2.27300E+02
-1.52359E+02	 2.27500E+02
-1.47067E+02	 2.27900E+02
-1.41778E+02	 2.27400E+02
-1.36493E+02	 2.27100E+02
-1.31210E+02	 2.27100E+02
-1.25930E+02	 2.27400E+02
-1.20654E+02	 2.28100E+02
-1.15380E+02	 2.27600E+02
-1.10109E+02	 2.26700E+02
-1.04841E+02	 2.28300E+02
-9.95765E+01	 2.27300E+02
-9.43147E+01	 2.27900E+02
-8.90558E+01	 2.27500E+02
-8.37999E+01	 2.27400E+02
-7.85470E+01	 2.28500E+02
-7.32971E+01	 2.28400E+02
-6.80501E+01	 2.28000E+02
-6.28061E+01	 2.27800E+02
-5.75650E+01	 2.28200E+02
-5.23269E+01	 2.28400E+02
-4.70918E+01	 2.28600E+02
-4.18596E+01	 2.28500E+02
-3.66303E+01	 2.28900E+02
-3.14040E+01	 2.28400E+02
-2.61807E+01	 2.29800E+02
-2.09602E+01	 2.30800E+02
-1.57428E+01	 2.32300E+02
-1.05282E+01	 2.48300E+02
-5.31664E+00	 4.73700E+02
-1.07979E-01	 1.11810E+03
 5.09775E+00	 7.65200E+02
 1.03006E+01	 2.70900E+02
 1.55004E+01	 2.33000E+02
 2.06974E+01	 2.32100E+02
 2.58914E+01	 2.30100E+02
 3.10825E+01	 2.29900E+02
 3.62707E+01	 2.29600E+02
 4.14560E+01	 2.29400E+02
 4.66384E+01	 2.29800E+02
 5.18178E+01	 2.29700E+02
 5.69944E+01	 2.30100E+02
 6.21680E+01	 2.30000E+02
 6.73388E+01	 2.30000E+02
 7.25066E+01	 2.29600E+02
 7.76716E+01	 2.30500E+02
 8.28336E+01	 2.30300E+02
 8.79928E+01	 2.31800E+02
 9.31490E+01	 2.31000E+02
 9.83024E+01	 2.32200E+02
 1.03453E+02	 2.32800E+02
 1.08600E+02	 2.35200E+02
 1.13745E+02	 2.41400E+02
 1.18887E+02	 2.57700E+02
 1.24026E+02	 2.96200E+02
 1.29162E+02	 3.95500E+02
 1.34295E+02	 6.01300E+02
 1.39426E+02	 9.11000E+02
 1.44553E+02	 1.23070E+03
 1.49678E+02	 1.53740E+03
 1.54799E+02	 1.80970E+03
 1.59918E+02	 2.00440E+03
 1.65034E+02	 2.09460E+03
 1.70148E+02	 2.10180E+03
 1.75258E+02	 2.08200E+03
 1.80365E+02	 2.16790E+03
 1.85470E+02	 2.35190E+03
 1.90572E+02	 2.43910E+03
 1.95671E+02	 2.45710E+03
 2.00767E+02	 2.55130E+03
 2.05860E+02	 2.83770E+03
 2.10950E+02	 3.25010E+03
 2.16038E+02	 3.66240E+03
 2.21122E+02	 3.99120E+03
 2.26204E+02	 4.18460E+03
 2.31283E+02	 4.06210E+03
 2.36360E+02	 4.11590E+03
 2.41433E+02	 4.53080E+03
 2.46504E+02	 4.57760E+03
 2.51571E+02	 4.32720E+03
 2.56636E+02	 4.20900E+03
 2.61698E+02	 4.18590E+03
 2.66758E+02	 4.23990E+03
 2.71814E+02	 4.23020E+03
 2.76868E+02	 4.30370E+03
 2.81919E+02	 4.41130E+03
 2.86967E+02	 4.38130E+03
 2.92012E+02	 4.38740E+03
 2.97055E+02	 4.42970E+03
 3.02094E+02	 4.35010E+03
 3.07131E+02	 4.33730E+03
 3.12165E+02	 4.24460E+03
 3.17196E+02	 4.27210E+03
 3.22225E+02	 4.32650E+03
 3.27251E+02	 4.18410E+03
 3.32274E+02	 4.07900E+03
 3.37294E+02	 4.29370E+03
 3.42311E+02	 4.50210E+03
 3.47326E+02	 4.44920E+03
 3.52337E+02	 4.39330E+03
 3.57346E+02	 4.29470E+03
 3.62353E+02	 4.16080E+03
 3.67356E+02	 4.07350E+03
 3.72357E+02	 4.07000E+03
 3.77355E+02	 4.28520E+03
 3.82350E+02	 4.37260E+03
 3.87342E+02	 4.26280E+03
 3.92332E+02	 4.11240E+03
 3.97319E+02	 4.14290E+03
 4.02303E+02	 4.28400E+03
 4.07284E+02	 4.14760E+03
 4.12263E+02	 3.95820E+03
 4.17239E+02	 4.12740E+03
 4.22212E+02	 4.20510E+03
 4.27182E+02	 4.00510E+03
 4.32150E+02	 3.84570E+03
 4.37115E+02	 3.89950E+03
 4.42077E+02	 3.98050E+03
 4.47037E+02	 4.03000E+03
 4.51993E+02	 4.01380E+03
 4.56947E+02	 3.90620E+03
 4.61898E+02	 3.76390E+03
 4.66847E+02	 3.65180E+03
 4.71793E+02	 3.69020E+03
 4.76736E+02	 3.68650E+03
 4.81676E+02	 3.72590E+03
 4.86614E+02	 3.73700E+03
 4.91549E+02	 3.72580E+03
 4.96481E+02	 3.63200E+03
 5.01410E+02	 3.64420E+03
 5.06337E+02	 3.79780E+03
 5.11261E+02	 3.81100E+03
 5.16183E+02	 3.65150E+03
 5.21101E+02	 3.52650E+03
 5.26017E+02	 3.70070E+03
 5.30930E+02	 3.81800E+03
 5.35841E+02	 3.78150E+03
 5.40749E+02	 3.74540E+03
 5.45654E+02	 3.71450E+03
 5.50556E+02	 3.74400E+03
 5.55456E+02	 3.79010E+03
 5.60353E+02	 3.81600E+03
 5.65248E+02	 3.80420E+03
 5.70139E+02	 3.70560E+03
 5.75028E+02	 3.58460E+03
 5.79915E+02	 3.50390E+03
 5.84798E+02	 3.44440E+03
 5.89679E+02	 3.44850E+03
 5.94558E+02	 3.34450E+03
 5.99433E+02	 3.37210E+03
 6.04306E+02	 3.43010E+03
 6.09177E+02	 3.46970E+03
 6.14044E+02	 3.45990E+03
 6.18909E+02	 3.44610E+03
 6.23772E+02	 3.37330E+03
 6.28631E+02	 3.23260E+03
 6.33488E+02	 3.15930E+03
 6.38343E+02	 3.15890E+03
 6.43194E+02	 3.22750E+03
 6.48044E+02	 3.30560E+03
 6.52890E+02	 3.41700E+03
 6.57734E+02	 3.41740E+03
 6.62575E+02	 3.26320E+03
 6.67413E+02	 3.22860E+03
 6.72249E+02	 3.36250E+03
 6.77082E+02	 3.37410E+03
 6.81913E+02	 3.34750E+03
 6.86741E+02	 3.24030E+03
 6.91566E+02	 3.15600E+03
 6.96389E+02	 3.13140E+03
 7.01209E+02	 3.18380E+03
 7.06026E+02	 3.19520E+03
 7.10841E+02	 3.18440E+03
 7.15653E+02	 3.16520E+03
 7.20463E+02	 3.05500E+03
 7.25270E+02	 3.06520E+03
 7.30074E+02	 3.06630E+03
 7.34876E+02	 3.09780E+03
 7.39675E+02	 3.15480E+03
 7.44471E+02	 3.07050E+03
 7.49265E+02	 2.98500E+03
 7.54057E+02	 3.00120E+03
 7.58845E+02	 3.01800E+03
 7.63631E+02	 2.98670E+03
 7.68415E+02	 3.04850E+03
 7.73196E+02	 3.12490E+03
 7.77974E+02	 3.03740E+03
 7.82750E+02	 2.82250E+03
 7.87523E+02	 2.69980E+03
 7.92293E+02	 2.85060E+03
 7.97061E+02	 2.99760E+03
 8.01826E+02	 3.06680E+03
 8.06589E+02	 3.08210E+03
 8.11349E+02	 2.98460E+03
 8.16107E+02	 2.90590E+03
 8.20862E+02	 2.97420E+03
 8.25614E+02	 3.08860E+03
 8.30364E+02	 3.05490E+03
 8.35111E+02	 2.94830E+03
 8.39856E+02	 2.90510E+03
 8.44598E+02	 2.96620E+03
 8.49338E+02	 3.16990E+03
 8.54075E+02	 3.29440E+03
 8.58809E+02	 3.20280E+03
 8.63541E+02	 3.09300E+03
 8.68271E+02	 3.08360E+03
 8.72997E+02	 3.07830E+03
 8.77722E+02	 3.14160E+03
 8.82443E+02	 3.17370E+03
 8.87162E+02	 3.21300E+03
 8.91879E+02	 3.14290E+03
 8.96593E+02	 3.08450E+03
 9.01304E+02	 3.01700E+03
 9.06013E+02	 2.89840E+03
 9.10720E+02	 2.82380E+03
 9.15424E+02	 2.80540E+03
 9.20125E+02	 2.83470E+03
 9.24824E+02	 2.85270E+03
 9.29520E+02	 2.93180E+03
 9.34214E+02	 2.92970E+03
 9.38905E+02	 2.80090E+03
 9.43594E+02	 2.72730E+03
 9.48280E+02	 2.75320E+03
 9.52963E+02	 2.71970E+03
 9.57644E+02	 2.77420E+03
 9.62323E+02	 2.86530E+03
 9.66999E+02	 2.91840E+03
 9.71673E+02	 2.92450E+03
 9.76344E+02	 2.98460E+03
 9.81012E+02	 2.96840E+03
 9.85678E+02	 2.90970E+03
 9.90342E+02	 2.91650E+03
 9.95003E+02	 2.88830E+03
 9.99661E+02	 2.84610E+03
 1.00432E+03	 2.88110E+03
 1.00897E+03	 2.92790E+03
 1.01362E+03	 2.93340E+03
 1.01827E+03	 2.99720E+03
 1.02292E+03	 3.07250E+03
 1.02756E+03	 3.01790E+03
 1.03220E+03	 2.94420E+03
 1.03684E+03	 3.01210E+03
 1.04148E+03	 3.04010E+03
 1.04611E+03	 3.06000E+03
 1.05074E+03	 3.12380E+03
 1.05537E+03	 3.08160E+03
 1.05999E+03	 3.11390E+03
 1.06462E+03	 3.19130E+03
 1.06924E+03	 3.31150E+03
 1.07386E+03	 3.36240E+03
 1.07847E+03	 3.37430E+03
 1.08309E+03	 3.38990E+03
 1.08770E+03	 3.35990E+03
 1.09231E+03	 3.26910E+03
 1.09691E+03	 3.18370E+03
 1.10152E+03	 3.13760E+03
 1.10612E+03	 3.10960E+03
 1.11072E+03	 3.25840E+03
 1.11531E+03	 3.43050E+03
 1.11991E+03	 3.37650E+03
 1.12450E+03	 3.31690E+03
 1.12909E+03	 3.27380E+03
 1.13368E+03	 3.23790E+03
 1.13826E+03	 3.23620E+03
 1.14284E+03	 3.28330E+03
 1.14742E+03	 3.30430E+03
 1.15200E+03	 3.29190E+03
 1.15657E+03	 3.42530E+03
 1.16115E+03	 3.47040E+03
 1.16571E+03	 3.37590E+03
 1.17028E+03	 3.41020E+03
 1.17485E+03	 3.49100E+03
 1.17941E+03	 3.57030E+03
 1.18397E+03	 3.49470E+03
 1.18853E+03	 3.37430E+03
 1.19308E+03	 3.43660E+03
 1.19763E+03	 3.55220E+03
 1.20218E+03	 3.66310E+03
 1.20673E+03	 3.67060E+03
 1.21128E+03	 3.74890E+03
 1.21582E+03	 3.71480E+03
 1.22036E+03	 3.74880E+03
 1.22490E+03	 3.83190E+03
 1.22943E+03	 3.84600E+03
 1.23397E+03	 3.80550E+03
 1.23850E+03	 3.82250E+03
 1.24303E+03	 3.86870E+03
 1.24755E+03	 3.99340E+03
 1.25208E+03	 4.12350E+03
 1.25660E+03	 4.19500E+03
 1.26112E+03	 4.07630E+03
 1.26563E+03	 3.94080E+03
 1.27015E+03	 3.94890E+03
 1.27466E+03	 4.03100E+03
 1.27917E+03	 4.21680E+03
 1.28367E+03	 4.38950E+03
 1.28818E+03	 4.46240E+03
 1.29268E+03	 4.36770E+03
 1.29718E+03	 4.49320E+03
 1.30168E+03	 4.82710E+03
 1.30617E+03	 5.05250E+03
 1.31067E+03	 5.04480E+03
 1.31516E+03	 4.88460E+03
 1.31964E+03	 4.76170E+03
 1.32413E+03	 4.65080E+03
 1.32861E+03	 4.67570E+03
 1.33309E+03	 4.77220E+03
 1.33757E+03	 4.72360E+03
 1.34205E+03	 4.62080E+03
 1.34652E+03	 4.72780E+03
 1.35099E+03	 4.75120E+03
 1.35546E+03	 4.70520E+03
 1.35993E+03	 4.72000E+03
 1.36439E+03	 4.75340E+03
 1.36885E+03	 4.83590E+03
 1.37331E+03	 4.98730E+03
 1.37777E+03	 5.09430E+03
 1.38222E+03	 5.03200E+03
 1.38668E+03	 4.93610E+03
 1.39113E+03	 4.96050E+03
 1.39557E+03	 5.10070E+03
 1.40002E+03	 5.14060E+03
 1.40446E+03	 5.00720E+03
 1.40890E+03	 4.98390E+03
 1.41334E+03	 5.11850E+03
 1.41778E+03	 5.30540E+03
 1.42221E+03	 5.41880E+03
 1.42664E+03	 5.43050E+03
 1.43107E+03	 5.47250E+03
 1.43550E+03	 5.58990E+03
 1.43992E+03	 5.81170E+03
 1.44434E+03	 6.02680E+03
 1.44876E+03	 6.07510E+03
 1.45318E+03	 6.11760E+03
 1.45760E+03	 6.12920E+03
 1.46201E+03	 6.19310E+03
 1.46642E+03	 5.98180E+03
 1.47083E+03	 5.67010E+03
 1.47523E+03	 5.51660E+03
 1.47964E+03	 5.37180E+03
 1.48404E+03	 5.38960E+03
 1.48844E+03	 5.52360E+03
 1.49283E+03	 5.58650E+03
 1.49723E+03	 5.53110E+03
 1.50162E+03	 5.48690E+03
 1.50601E+03	 5.43080E+03
 1.51040E+03	 5.43230E+03
 1.51478E+03	 5.51440E+03
 1.51916E+03	 5.47000E+03
 1.52354E+03	 5.44830E+03
 1.52792E+03	 5.41740E+03
 1.53230E+03	 5.39810E+03
 1.53667E+03	 5.45140E+03
 1.54104E+03	 5.44730E+03
 1.54541E+03	 5.55800E+03
 1.54978E+03	 5.67630E+03
 1.55414E+03	 5.47600E+03
 1.55851E+03	 5.28700E+03
 1.56287E+03	 5.34240E+03
 1.56722E+03	 5.58430E+03
 1.57158E+03	 5.71320E+03
 1.57593E+03	 5.71010E+03
 1.58028E+03	 5.58870E+03
 1.58463E+03	 5.37340E+03
 1.58898E+03	 5.35750E+03
 1.59332E+03	 5.60170E+03
 1.59766E+03	 5.59090E+03
 1.60200E+03	 5.48870E+03
 1.60634E+03	 5.48160E+03
 1.61067E+03	 5.51200E+03
 1.61501E+03	 5.37540E+03
 1.61934E+03	 5.18410E+03
 1.62366E+03	 5.10450E+03
 1.62799E+03	 5.23590E+03
 1.63231E+03	 5.36180E+03
 1.63663E+03	 5.38870E+03
 1.64095E+03	 5.32840E+03
 1.64527E+03	 5.27230E+03
 1.64959E+03	 5.28740E+03
 1.65390E+03	 5.39560E+03
 1.65821E+03	 5.39800E+03
 1.66252E+03	 5.26920E+03
 1.66682E+03	 5.30490E+03
 1.67112E+03	 5.31960E+03
 1.67543E+03	 5.17190E+03
 1.67972E+03	 5.08330E+03
 1.68402E+03	 4.90300E+03
 1.68832E+03	 5.01010E+03
 1.69261E+03	 5.23250E+03
 1.69690E+03	 5.22840E+03
 1.70119E+03	 5.16920E+03
 1.70547E+03	 5.17380E+03
 1.70975E+03	 5.14220E+03
 1.71403E+03	 5.11240E+03
 1.71831E+03	 4.98170E+03
 1.72259E+03	 4.90770E+03
 1.72686E+03	 4.96610E+03
 1.73114E+03	 4.96650E+03
 1.73541E+03	 4.94310E+03
 1.73967E+03	 4.95860E+03
 1.74394E+03	 4.98960E+03
 1.74820E+03	 5.09810E+03
 1.75246E+03	 5.21420E+03
 1.75672E+03	 5.27480E+03
 1.76098E+03	 4.95470E+03
 1.76523E+03	 4.58480E+03
 1.76949E+03	 4.55060E+03
 1.77374E+03	 4.57760E+03
 1.77798E+03	 4.60870E+03
 1.78223E+03	 4.65870E+03
 1.78647E+03	 4.59240E+03
 1.79072E+03	 4.49760E+03
 1.79495E+03	 4.51950E+03
 1.79919E+03	 4.65300E+03
 1.80343E+03	 4.78300E+03
 1.80766E+03	 4.65320E+03
 1.81189E+03	 4.47400E+03
 1.81612E+03	 4.31220E+03
 1.82034E+03	 4.29450E+03
 1.82457E+03	 4.35330E+03
 1.82879E+03	 4.49970E+03
 1.83301E+03	 4.64660E+03
 1.83723E+03	 4.62810E+03
 1.84144E+03	 4.48220E+03
 1.84565E+03	 4.25830E+03
 1.84986E+03	 4.09530E+03
 1.85407E+03	 4.00970E+03
 1.85828E+03	 4.00930E+03
 1.86248E+03	 4.12550E+03
 1.86669E+03	 4.32660E+03
 1.87089E+03	 4.38210E+03
 1.87508E+03	 4.20390E+03
 1.87928E+03	 4.01030E+03
 1.88347E+03	 3.89900E+03
 1.88766E+03	 3.89200E+03
 1.89185E+03	 3.95980E+03
 1.89604E+03	 4.00920E+03
 1.90022E+03	 4.06230E+03
 1.90441E+03	 3.98830E+03
 1.90859E+03	 3.86990E+03
 1.91277E+03	 3.84270E+03
 1.91694E+03	 3.90300E+03
 1.92112E+03	 3.88260E+03
 1.92529E+03	 3.80620E+03
 1.92946E+03	 3.74100E+03
 1.93363E+03	 3.81950E+03
 1.93779E+03	 3.85690E+03
 1.94195E+03	 3.77600E+03
 1.94612E+03	 3.69210E+03
 1.95027E+03	 3.69890E+03
 1.95443E+03	 3.69040E+03
 1.95859E+03	 3.61490E+03
 1.96274E+03	 3.56740E+03
 1.96689E+03	 3.59520E+03
 1.97104E+03	 3.63570E+03
 1.97518E+03	 3.54950E+03
 1.97933E+03	 3.40860E+03
 1.98347E+03	 3.38110E+03
 1.98761E+03	 3.38590E+03
 1.99175E+03	 3.36790E+03
 1.99588E+03	 3.40560E+03
 2.00002E+03	 3.39130E+03
 2.00415E+03	 3.28720E+03
 2.00828E+03	 3.25980E+03
 2.01241E+03	 3.29390E+03
 2.01653E+03	 3.30320E+03
 2.02065E+03	 3.35220E+03
 2.02477E+03	 3.35840E+03
 2.02889E+03	 3.21350E+03
 2.03301E+03	 3.12790E+03
 2.03712E+03	 3.21600E+03
 2.04124E+03	 3.25090E+03
 2.04535E+03	 3.30880E+03
 2.04946E+03	 3.31480E+03
 2.05356E+03	 3.28410E+03
 2.05767E+03	 3.20820E+03
 2.06177E+03	 3.16680E+03
 2.06587E+03	 3.11530E+03
 2.06997E+03	 3.09240E+03
 2.07406E+03	 3.08400E+03
 2.07816E+03	 3.01700E+03
 2.08225E+03	 2.99670E+03
 2.08634E+03	 2.98960E+03
 2.09042E+03	 2.94710E+03
 2.09451E+03	 2.93670E+03
 2.09859E+03	 2.93100E+03
 2.10267E+03	 3.00180E+03
 2.10675E+03	 3.02780E+03
 2.11083E+03	 3.01790E+03
 2.11490E+03	 3.00070E+03
 2.11898E+03	 2.95250E+03
 2.12305E+03	 2.86060E+03
 2.12712E+03	 2.85150E+03
 2.13118E+03	 2.85360E+03
 2.13525E+03	 2.87950E+03
 2.13931E+03	 2.88100E+03
 2.14337E+03	 2.88760E+03
 2.14743E+03	 2.84400E+03
 2.15149E+03	 2.82020E+03
 2.15554E+03	 2.78650E+03
 2.15959E+03	 2.67770E+03
 2.16364E+03	 2.68450E+03
 2.16769E+03	 2.78570E+03
 2.17174E+03	 2.73870E+03
 2.17578E+03	 2.67470E+03
 2.17982E+03	 2.75390E+03
 2.18386E+03	 2.74200E+03
 2.18790E+03	 2.69400E+03
 2.19194E+03	 2.70600E+03
 2.19597E+03	 2.71460E+03
 2.20000E+03	 2.68000E+03
 2.20403E+03	 2.65770E+03
 2.20806E+03	 2.66990E+03
 2.21208E+03	 2.62170E+03
 2.21611E+03	 2.55580E+03
 2.22013E+03	 2.51980E+03
 2.22415E+03	 2.54390E+03
 2.22817E+03	 2.59950E+03
 2.23218E+03	 2.58000E+03
 2.23620E+03	 2.53550E+03
 2.24021E+03	 2.54430E+03
 2.24422E+03	 2.52690E+03
 2.24822E+03	 2.53470E+03
 2.25223E+03	 2.54650E+03
 2.25623E+03	 2.56120E+03
 2.26023E+03	 2.51860E+03
 2.26423E+03	 2.47930E+03
 2.26823E+03	 2.48070E+03
 2.27223E+03	 2.49250E+03
 2.27622E+03	 2.48640E+03
 2.28021E+03	 2.41670E+03
 2.28420E+03	 2.40170E+03
 2.28819E+03	 2.44530E+03
 2.29217E+03	 2.46050E+03
 2.29615E+03	 2.50010E+03
 2.30014E+03	 2.47400E+03
 2.30411E+03	 2.35860E+03
 2.30809E+03	 2.26430E+03
 2.31207E+03	 2.30780E+03
 2.31604E+03	 2.36010E+03
 2.32001E+03	 2.39730E+03
 2.32398E+03	 2.45510E+03
 2.32795E+03	 2.46010E+03
 2.33191E+03	 2.40300E+03
 2.33587E+03	 2.35650E+03
 2.33984E+03	 2.28840E+03
 2.34380E+03	 2.23310E+03
 2.34775E+03	 2.26870E+03
 2.35171E+03	 2.30480E+03
 2.35566E+03	 2.33410E+03
 2.35961E+03	 2.31320E+03
 2.36356E+03	 2.22800E+03
 2.36751E+03	 2.14550E+03
 2.37145E+03	 2.16480E+03
 2.37540E+03	 2.23690E+03
 2.37934E+03	 2.30460E+03
 2.38328E+03	 2.27240E+03
 2.38721E+03	 2.19220E+03
 2.39115E+03	 2.20270E+03
 2.39508E+03	 2.23130E+03
 2.39901E+03	 2.28500E+03
 2.40294E+03	 2.28310E+03
 2.40687E+03	 2.26000E+03
 2.41080E+03	 2.22470E+03
 2.41472E+03	 2.21540E+03
 2.41864E+03	 2.17370E+03
 2.42256E+03	 2.18590E+03
 2.42648E+03	 2.22930E+03
 2.43039E+03	 2.26860E+03
 2.43431E+03	 2.29800E+03
 2.43822E+03	 2.25850E+03
 2.44213E+03	 2.21100E+03
 2.44604E+03	 2.18300E+03
 2.44994E+03	 2.14840E+03
 2.45385E+03	 2.16360E+03
 2.45775E+03	 2.18970E+03
 2.46165E+03	 2.19350E+03
 2.46555E+03	 2.18110E+03
 2.46944E+03	 2.17150E+03
 2.47334E+03	 2.14840E+03
 2.47723E+03	 2.09900E+03
 2.48112E+03	 2.14050E+03
 2.48501E+03	 2.20260E+03
 2.48889E+03	 2.19570E+03
 2.49278E+03	 2.18620E+03
 2.49666E+03	 2.19070E+03
 2.50054E+03	 2.19060E+03
 2.50442E+03	 2.17960E+03
 2.50830E+03	 2.10520E+03
 2.51217E+03	 2.08110E+03
 2.51604E+03	 2.13960E+03
 2.51992E+03	 2.17710E+03
 2.52378E+03	 2.23130E+03
 2.52765E+03	 2.23640E+03
 2.53152E+03	 2.20960E+03
 2.53538E+03	 2.17140E+03
 2.53924E+03	 2.13750E+03
 2.54310E+03	 2.15540E+03
 2.54696E+03	 2.19300E+03
 2.55081E+03	 2.19740E+03
 2.55467E+03	 2.19680E+03
 2.55852E+03	 2.24350E+03
 2.56237E+03	 2.29130E+03
 2.56622E+03	 2.26420E+03
 2.57006E+03	 2.19020E+03
 2.57391E+03	 2.19130E+03
 2.57775E+03	 2.24590E+03
 2.58159E+03	 2.28870E+03
 2.58543E+03	 2.26380E+03
 2.58926E+03	 2.20840E+03
 2.59310E+03	 2.16440E+03
 2.59693E+03	 2.17050E+03
 2.60076E+03	 2.20630E+03
 2.60459E+03	 2.24910E+03
 2.60842E+03	 2.24920E+03
 2.61224E+03	 2.25880E+03
 2.61606E+03	 2.27470E+03
 2.61989E+03	 2.21090E+03
 2.62370E+03	 2.13580E+03
 2.62752E+03	 2.14580E+03
 2.63134E+03	 2.21430E+03
 2.63515E+03	 2.24400E+03
 2.63896E+03	 2.28240E+03
 2.64277E+03	 2.29170E+03
 2.64658E+03	 2.25380E+03
 2.65039E+03	 2.25170E+03
 2.65419E+03	 2.30030E+03
 2.65799E+03	 2.32730E+03
 2.66179E+03	 2.35230E+03
 2.66559E+03	 2.39290E+03
 2.66939E+03	 2.36730E+03
 2.67318E+03	 2.33010E+03
 2.67698E+03	 2.33260E+03
 2.68077E+03	 2.29980E+03
 2.68456E+03	 2.31470E+03
 2.68834E+03	 2.35870E+03
 2.69213E+03	 2.42880E+03
 2.69591E+03	 2.42780E+03
 2.69969E+03	 2.40830E+03
 2.70347E+03	 2.44500E+03
 2.70725E+03	 2.51640E+03
 2.71103E+03	 2.47970E+03
 2.71480E+03	 2.43890E+03
 2.71857E+03	 2.47140E+03
 2.72235E+03	 2.51950E+03
 2.72611E+03	 2.54430E+03
 2.72988E+03	 2.55650E+03
 2.73365E+03	 2.52130E+03
 2.73741E+03	 2.48010E+03
 2.74117E+03	 2.43960E+03
 2.74493E+03	 2.42470E+03
 2.74869E+03	 2.41530E+03
 2.75244E+03	 2.36050E+03
 2.75620E+03	 2.34910E+03
 2.75995E+03	 2.36570E+03
 2.76370E+03	 2.37970E+03
 2.76745E+03	 2.34840E+03
 2.77119E+03	 2.35300E+03
 2.77494E+03	 2.40000E+03
 2.77868E+03	 2.39630E+03
 2.78242E+03	 2.36830E+03
 2.78616E+03	 2.38620E+03
 2.78990E+03	 2.41730E+03
 2.79363E+03	 2.38250E+03
 2.79737E+03	 2.39190E+03
 2.80110E+03	 2.42600E+03
 2.80483E+03	 2.48060E+03
 2.80856E+03	 2.51720E+03
 2.81228E+03	 2.57280E+03
 2.81601E+03	 2.66840E+03
 2.81973E+03	 2.74600E+03
 2.82345E+03	 2.73050E+03
 2.82717E+03	 2.68610E+03
 2.83088E+03	 2.68800E+03
 2.83460E+03	 2.79800E+03
 2.83831E+03	 3.05470E+03
 2.84203E+03	 3.41530E+03
 2.84573E+03	 4.07460E+03
 2.84944E+03	 4.97390E+03
 2.85315E+03	 5.62630E+03
 2.85685E+03	 5.70600E+03
 2.86056E+03	 5.52980E+03
 2.86426E+03	 5.38600E+03
 2.86796E+03	 5.14500E+03
 2.87165E+03	 5.12280E+03
 2.87535E+03	 5.20400E+03
 2.87904E+03	 5.14890E+03
 2.88273E+03	 5.20600E+03
 2.88642E+03	 5.39130E+03
 2.89011E+03	 5.57610E+03
 2.89380E+03	 5.78410E+03
 2.89748E+03	 5.95040E+03
 2.90116E+03	 5.89690E+03
 2.90484E+03	 5.64730E+03
 2.90852E+03	 5.52130E+03
 2.91220E+03	 5.57680E+03
 2.91588E+03	 5.65880E+03
 2.91955E+03	 5.57650E+03
 2.92322E+03	 5.53830E+03
 2.92689E+03	 5.66340E+03
 2.93056E+03	 5.67590E+03
 2.93423E+03	 5.50840E+03
 2.93789E+03	 5.21780E+03
 2.94155E+03	 4.92450E+03
 2.94522E+03	 4.64220E+03
 2.94887E+03	 4.38970E+03
 2.95253E+03	 4.03310E+03
 2.95619E+03	 3.83460E+03
 2.95984E+03	 3.89790E+03
 2.96349E+03	 3.85430E+03
 2.96714E+03	 3.66880E+03
 2.97079E+03	 3.45750E+03
 2.97444E+03	 3.23800E+03
 2.97809E+03	 3.14670E+03
 2.98173E+03	 3.04450E+03
 2.98537E+03	 2.92810E+03
 2.98901E+03	 2.84980E+03
 2.99265E+03	 2.74900E+03
 2.99628E+03	 2.66010E+03
 2.99992E+03	 2.66140E+03
 3.00355E+03	 2.69120E+03
 3.00718E+03	 2.70370E+03
 3.01081E+03	 2.68310E+03
 3.01444E+03	 2.56570E+03
 3.01806E+03	 2.51490E+03
 3.02169E+03	 2.48470E+03
 3.02531E+03	 2.47770E+03
 3.02893E+03	 2.42970E+03
 3.03255E+03	 2.40560E+03
 3.03617E+03	 2.37120E+03
 3.03978E+03	 2.36610E+03
 3.04339E+03	 2.32640E+03
 3.04701E+03	 2.21150E+03
 3.05062E+03	 2.15280E+03
 3.05422E+03	 2.20530E+03
 3.05783E+03	 2.29210E+03
 3.06144E+03	 2.31590E+03
 3.06504E+03	 2.32260E+03
 3.06864E+03	 2.30030E+03
 3.07224E+03	 2.25450E+03
 3.07584E+03	 2.24160E+03
 3.07943E+03	 2.29610E+03
 3.08303E+03	 2.34740E+03
 3.08662E+03	 2.33670E+03
 3.09021E+03	 2.28770E+03
 3.09380E+03	 2.27330E+03
 3.09739E+03	 2.26660E+03
 3.10097E+03	 2.28290E+03
 3.10455E+03	 2.30300E+03
 3.10814E+03	 2.25860E+03
 3.11172E+03	 2.18170E+03
 3.11530E+03	 2.14120E+03
 3.11887E+03	 2.10670E+03
 3.12245E+03	 2.13660E+03
 3.12602E+03	 2.13890E+03
 3.12959E+03	 2.17330E+03
 3.13316E+03	 2.25300E+03
 3.13673E+03	 2.25410E+03
 3.14030E+03	 2.23920E+03
 3.14386E+03	 2.19990E+03
 3.14742E+03	 2.17900E+03
 3.15099E+03	 2.17840E+03
 3.15455E+03	 2.14060E+03
 3.15810E+03	 2.11660E+03
 3.16166E+03	 2.10680E+03
 3.16521E+03	 2.13710E+03
 3.16877E+03	 2.18870E+03
 3.17232E+03	 2.22780E+03
 3.17587E+03	 2.19470E+03
 3.17941E+03	 2.14210E+03
 3.18296E+03	 2.08800E+03
 3.18650E+03	 2.05340E+03
 3.19005E+03	 2.08660E+03
 3.19359E+03	 2.09340E+03
 3.19713E+03	 2.08190E+03
 3.20066E+03	 2.06750E+03
 3.20420E+03	 2.03230E+03
 3.20773E+03	 1.99910E+03
 3.21127E+03	 2.00070E+03
 3.21480E+03	 2.02380E+03
 3.21832E+03	 2.05070E+03
 3.22185E+03	 2.03290E+03
 3.22538E+03	 1.98570E+03
 3.22890E+03	 1.97810E+03
 3.23242E+03	 2.00820E+03
 3.23594E+03	 2.00470E+03
 3.23946E+03	 1.97190E+03
 3.24298E+03	 1.99080E+03
 3.24649E+03	 2.02150E+03
 3.25001E+03	 1.99070E+03
 3.25352E+03	 1.97470E+03
 3.25703E+03	 1.99640E+03
 3.26054E+03	 1.98550E+03
 3.26405E+03	 1.95780E+03
 3.26755E+03	 1.95910E+03
 3.27105E+03	 1.96740E+03
 3.27456E+03	 1.94830E+03
 3.27806E+03	 1.89050E+03
 3.28155E+03	 1.85590E+03
 3.28505E+03	 1.88570E+03
 3.28855E+03	 1.88920E+03
 3.29204E+03	 1.88770E+03
 3.29553E+03	 1.84830E+03
 3.29902E+03	 1.80270E+03
 3.30251E+03	 1.78890E+03
 3.30600E+03	 1.79750E+03
 3.30948E+03	 1.79100E+03
 3.31297E+03	 1.79920E+03
 3.31645E+03	 1.81650E+03
 3.31993E+03	 1.83750E+03
 3.32341E+03	 1.86530E+03
 3.32688E+03	 1.85720E+03
 3.33036E+03	 1.84830E+03
 3.33383E+03	 1.83180E+03
 3.33730E+03	 1.82800E+03
 3.34077E+03	 1.82050E+03
 3.34424E+03	 1.80140E+03
 3.34771E+03	 1.80950E+03
 3.35117E+03	 1.80370E+03
 3.35464E+03	 1.79960E+03
 3.35810E+03	 1.81150E+03
 3.36156E+03	 1.82400E+03
 3.36502E+03	 1.78220E+03
 3.36848E+03	 1.73010E+03
 3.37193E+03	 1.69510E+03
 3.37538E+03	 1.69500E+03
 3.37884E+03	 1.70070E+03
 3.38229E+03	 1.70620E+03
 3.38574E+03	 1.68580E+03
 3.38918E+03	 1.68830E+03
 3.39263E+03	 1.71180E+03
 3.39607E+03	 1.72750E+03
 3.39951E+03	 1.73190E+03
 3.40295E+03	 1.71780E+03
 3.40639E+03	 1.67970E+03
 3.40983E+03	 1.66980E+03
 3.41327E+03	 1.68490E+03
 3.41670E+03	 1.71980E+03
 3.42013E+03	 1.71260E+03
 3.42356E+03	 1.67340E+03
 3.42699E+03	 1.66190E+03
 3.43042E+03	 1.66670E+03
 3.43384E+03	 1.65810E+03
 3.43727E+03	 1.63500E+03
 3.44069E+03	 1.64660E+03
 3.44411E+03	 1.65460E+03
 3.44753E+03	 1.64070E+03
 3.45095E+03	 1.61950E+03
 3.45437E+03	 1.60130E+03
 3.45778E+03	 1.60590E+03
 3.46119E+03	 1.61460E+03
 3.46460E+03	 1.59460E+03
 3.46801E+03	 1.59440E+03
 3.47142E+03	 1.58790E+03
 3.47483E+03	 1.57380E+03
 3.47823E+03	 1.53990E+03
 3.48164E+03	 1.53570E+03
 3.48504E+03	 1.55500E+03
 3.48844E+03	 1.53620E+03
 3.49184E+03	 1.48300E+03
 3.49523E+03	 1.43620E+03
 3.49863E+03	 1.42930E+03
 3.50202E+03	 1.45400E+03
 3.50541E+03	 1.49250E+03
 3.50880E+03	 1.50860E+03
 3.51219E+03	 1.52190E+03
 3.51558E+03	 1.56420E+03
 3.51896E+03	 1.56840E+03
 3.52235E+03	 1.52740E+03
 3.52573E+03	 1.48280E+03
 3.52911E+03	 1.45900E+03
 3.53249E+03	 1.48820E+03
 3.53587E+03	 1.54450E+03
 3.53924E+03	 1.55540E+03
 3.54262E+03	 1.51890E+03
 3.54599E+03	 1.43520E+03
 3.54936E+03	 1.38590E+03
 3.55273E+03	 1.36610E+03
 3.55610E+03	 1.39550E+03
 3.55946E+03	 1.40960E+03
 3.56283E+03	 1.41660E+03
 3.56619E+03	 1.41910E+03
 3.56955E+03	 1.40000E+03
 3.57291E+03	 1.40100E+03
 3.57627E+03	 1.40320E+03
 3.57963E+03	 1.38980E+03
 3.58298E+03	 1.34140E+03
 3.58634E+03	 1.29520E+03
 3.58969E+03	 1.28340E+03
 3.59304E+03	 1.28550E+03
 3.59639E+03	 1.30420E+03
 3.59974E+03	 1.34330E+03
 3.60308E+03	 1.36310E+03
 3.60643E+03	 1.33120E+03
 3.60977E+03	 1.31430E+03
 3.61311E+03	 1.31020E+03
 3.61645E+03	 1.30710E+03
 3.61979E+03	 1.29480E+03
 3.62312E+03	 1.29730E+03
 3.62646E+03	 1.30750E+03
 3.62979E+03	 1.31140E+03
 3.63312E+03	 1.30570E+03
 3.63645E+03	 1.29890E+03
 3.63978E+03	 1.27790E+03
 3.64311E+03	 1.25240E+03
 3.64643E+03	 1.22830E+03
 3.64976E+03	 1.23100E+03
 3.65308E+03	 1.26490E+03
 3.65640E+03	 1.29340E+03
 3.65972E+03	 1.30870E+03
 3.66304E+03	 1.31880E+03
 3.66635E+03	 1.33040E+03
 3.66967E+03	 1.30660E+03
 3.67298E+03	 1.26940E+03
 3.67629E+03	 1.25540E+03
 3.67960E+03	 1.23790E+03
 3.68291E+03	 1.21890E+03
 3.68621E+03	 1.20740E+03
 3.68952E+03	 1.21430E+03
 3.69282E+03	 1.23560E+03
 3.69613E+03	 1.23850E+03
 3.69943E+03	 1.22310E+03
 3.70272E+03	 1.20230E+03
 3.70602E+03	 1.18570E+03
 3.70932E+03	 1.15380E+03
 3.71261E+03	 1.14180E+03
 3.71591E+03	 1.16320E+03
 3.71920E+03	 1.19250E+03
 3.72249E+03	 1.20150E+03
 3.72577E+03	 1.19890E+03
 3.72906E+03	 1.18240E+03
 3.73235E+03	 1.17120E+03
 3.73563E+03	 1.16770E+03
 3.73891E+03	 1.19080E+03
 3.74219E+03	 1.19440E+03
 3.74547E+03	 1.17070E+03
 3.74875E+03	 1.14510E+03
 3.75202E+03	 1.13420E+03
 3.75530E+03	 1.12380E+03
 3.75857E+03	 1.10760E+03
 3.76184E+03	 1.11830E+03
 3.76511E+03	 1.13240E+03
 3.76838E+03	 1.16630E+03
 3.77165E+03	 1.17690E+03
 3.77491E+03	 1.17070E+03
 3.77818E+03	 1.14530E+03
 3.78144E+03	 1.13380E+03
 3.78470E+03	 1.13110E+03
 3.78796E+03	 1.13550E+03
 3.79121E+03	 1.13580E+03
 3.79447E+03	 1.12940E+03
 3.79772E+03	 1.13880E+03
 3.80098E+03	 1.14220E+03
 3.80423E+03	 1.14640E+03
 3.80748E+03	 1.14530E+03
 3.81073E+03	 1.13800E+03
 3.81397E+03	 1.12050E+03
 3.81722E+03	 1.08150E+03
 3.82046E+03	 1.05730E+03
 3.82371E+03	 1.04910E+03
 3.82695E+03	 1.03500E+03
 3.83019E+03	 1.05600E+03
 3.83342E+03	 1.08260E+03
 3.83666E+03	 1.10290E+03
 3.83990E+03	 1.10090E+03
 3.84313E+03	 1.07920E+03
 3.84636E+03	 1.04620E+03
 3.84959E+03	 1.01740E+03
 3.85282E+03	 1.02370E+03
 3.85605E+03	 1.06600E+03
 3.85927E+03	 1.10710E+03
 3.86250E+03	 1.13020E+03
 3.86572E+03	 1.12130E+03
 3.86894E+03	 1.08440E+03
 3.87216E+03	 1.06250E+03
 3.87538E+03	 1.05920E+03
 3.87860E+03	 1.05960E+03
 3.88181E+03	 1.06710E+03
 3.88503E+03	 1.06550E+03
 3.88824E+03	 1.05130E+03
 3.89145E+03	 1.03980E+03
 3.89466E+03	 1.06740E+03
 3.89787E+03	 1.08480E+03
 3.90107E+03	 1.10250E+03
 3.90428E+03	 1.09990E+03
 3.90748E+03	 1.07610E+03
 3.91068E+03	 1.05380E+03
 3.91388E+03	 1.07330E+03
 3.91708E+03	 1.09950E+03
 3.92028E+03	 1.09940E+03
 3.92348E+03	 1.08300E+03
 3.92667E+03	 1.06710E+03
 3.92987E+03	 1.04820E+03
 3.93306E+03	 1.02490E+03
 3.93625E+03	 1.01420E+03
 3.93944E+03	 1.04010E+03
 3.94262E+03	 1.06470E+03
 3.94581E+03	 1.07780E+03
 3.94899E+03	 1.08060E+03
 3.95218E+03	 1.05840E+03
 3.95536E+03	 1.03680E+03
 3.95854E+03	 1.03050E+03
 3.96172E+03	 1.03760E+03
 3.96489E+03	 1.04070E+03
 3.96807E+03	 1.05270E+03
 3.97124E+03	 1.04860E+03
 3.97441E+03	 1.04540E+03
 3.97759E+03	 1.05320E+03
 3.98076E+03	 1.06350E+03
 3.98392E+03	 1.03870E+03
 3.98709E+03	 1.01220E+03
 3.99026E+03	 9.97800E+02
 3.99342E+03	 9.65400E+02
 3.99658E+03	 9.46800E+02
 3.99974E+03	 9.64500E+02
 4.00290E+03	 1.00660E+03
 4.00606E+03	 1.04410E+03
 4.00922E+03	 1.06890E+03
 4.01237E+03	 1.06020E+03
 4.01552E+03	 1.03040E+03
 4.01868E+03	 1.01190E+03
 4.02183E+03	 1.00060E+03
